'Elapsed time','ECG ECG'
'seconds','mV'
0.000,-0.020
0.002,-0.023
0.004,-0.028
0.006,-0.035
0.008,-0.044
0.010,-0.052
0.012,-0.057
0.014,-0.058
0.016,-0.053
0.018,-0.043
0.020,-0.026
0.022,-0.005
0.024,0.019
0.026,0.043
0.028,0.064
0.030,0.080
0.032,0.090
0.034,0.097
0.036,0.102
0.038,0.111
0.040,0.129
0.042,0.157
0.044,0.196
0.046,0.238
0.048,0.275
0.050,0.298
0.052,0.300
0.054,0.280
0.056,0.242
0.058,0.190
0.060,0.132
0.062,0.073
0.064,0.018
0.066,-0.029
0.068,-0.066
0.070,-0.090
0.072,-0.100
0.074,-0.096
0.076,-0.082
0.078,-0.063
0.080,-0.045
0.082,-0.032
0.084,-0.026
0.086,-0.024
0.088,-0.025
0.090,-0.027
0.092,-0.028
0.094,-0.028
0.096,-0.027
0.098,-0.025
0.100,-0.024
0.102,-0.023
0.104,-0.022
0.106,-0.020
0.108,-0.017
0.110,-0.014
0.112,-0.010
0.114,-0.007
0.116,-0.007
0.118,-0.009
0.120,-0.013
0.122,-0.020
0.124,-0.026
0.126,-0.031
0.128,-0.033
0.130,-0.032
0.132,-0.027
0.134,-0.019
0.136,-0.010
0.138,-0.002
0.140,0.003
0.142,0.005
0.144,0.005
0.146,0.003
0.148,0.001
0.150,0.001
0.152,0.002
0.154,0.004
0.156,0.007
0.158,0.010
0.160,0.014
0.162,0.017
0.164,0.019
0.166,0.019
0.168,0.016
0.170,0.012
0.172,0.007
0.174,0.003
0.176,-0.000
0.178,-0.002
0.180,-0.002
0.182,-0.001
0.184,-0.000
0.186,0.002
0.188,0.005
0.190,0.009
0.192,0.015
0.194,0.021
0.196,0.027
0.198,0.032
0.200,0.036
0.202,0.039
0.204,0.041
0.206,0.043
0.208,0.043
0.210,0.041
0.212,0.039
0.214,0.036
0.216,0.034
0.218,0.033
0.220,0.034
0.222,0.038
0.224,0.043
0.226,0.050
0.228,0.056
0.230,0.062
0.232,0.067
0.234,0.072
0.236,0.075
0.238,0.079
0.240,0.084
0.242,0.089
0.244,0.093
0.246,0.098
0.248,0.102
0.250,0.106
0.252,0.110
0.254,0.115
0.256,0.122
0.258,0.130
0.260,0.141
0.262,0.153
0.264,0.163
0.266,0.172
0.268,0.178
0.270,0.181
0.272,0.181
0.274,0.180
0.276,0.180
0.278,0.182
0.280,0.187
0.282,0.194
0.284,0.202
0.286,0.208
0.288,0.211
0.290,0.211
0.292,0.209
0.294,0.205
0.296,0.200
0.298,0.196
0.300,0.191
0.302,0.186
0.304,0.180
0.306,0.174
0.308,0.167
0.310,0.162
0.312,0.158
0.314,0.153
0.316,0.147
0.318,0.138
0.320,0.126
0.322,0.112
0.324,0.096
0.326,0.081
0.328,0.068
0.330,0.056
0.332,0.046
0.334,0.038
0.336,0.029
0.338,0.021
0.340,0.014
0.342,0.007
0.344,0.001
0.346,-0.004
0.348,-0.008
0.350,-0.011
0.352,-0.016
0.354,-0.020
0.356,-0.026
0.358,-0.031
0.360,-0.035
0.362,-0.037
0.364,-0.039
0.366,-0.040
0.368,-0.041
0.370,-0.044
0.372,-0.047
0.374,-0.049
0.376,-0.052
0.378,-0.054
0.380,-0.056
0.382,-0.057
0.384,-0.059
0.386,-0.059
0.388,-0.057
0.390,-0.054
0.392,-0.051
0.394,-0.048
0.396,-0.046
0.398,-0.046
0.400,-0.048
0.402,-0.050
0.404,-0.051
0.406,-0.050
0.408,-0.047
0.410,-0.041
0.412,-0.035
0.414,-0.030
0.416,-0.027
0.418,-0.026
0.420,-0.029
0.422,-0.034
0.424,-0.040
0.426,-0.045
0.428,-0.048
0.430,-0.048
0.432,-0.045
0.434,-0.041
0.436,-0.037
0.438,-0.034
0.440,-0.032
0.442,-0.031
0.444,-0.032
0.446,-0.034
0.448,-0.035
0.450,-0.036
0.452,-0.037
0.454,-0.038
0.456,-0.038
0.458,-0.037
0.460,-0.035
0.462,-0.031
0.464,-0.027
0.466,-0.023
0.468,-0.020
0.470,-0.021
0.472,-0.024
0.474,-0.028
0.476,-0.033
0.478,-0.035
0.480,-0.034
0.482,-0.030
0.484,-0.024
0.486,-0.019
0.488,-0.016
0.490,-0.016
0.492,-0.019
0.494,-0.024
0.496,-0.030
0.498,-0.036
0.500,-0.041
0.502,-0.045
0.504,-0.049
0.506,-0.051
0.508,-0.052
0.510,-0.051
0.512,-0.048
0.514,-0.045
0.516,-0.042
0.518,-0.039
0.520,-0.038
0.522,-0.038
0.524,-0.040
0.526,-0.043
0.528,-0.046
0.530,-0.050
0.532,-0.053
0.534,-0.054
0.536,-0.053
0.538,-0.049
0.540,-0.044
0.542,-0.040
0.544,-0.036
0.546,-0.035
0.548,-0.037
0.550,-0.039
0.552,-0.041
0.554,-0.042
0.556,-0.041
0.558,-0.039
0.560,-0.039
0.562,-0.040
0.564,-0.043
0.566,-0.049
0.568,-0.054
0.570,-0.058
0.572,-0.061
0.574,-0.061
0.576,-0.060
0.578,-0.058
0.580,-0.055
0.582,-0.052
0.584,-0.048
0.586,-0.044
0.588,-0.041
0.590,-0.040
0.592,-0.042
0.594,-0.045
0.596,-0.051
0.598,-0.057
0.600,-0.062
0.602,-0.066
0.604,-0.067
0.606,-0.065
0.608,-0.060
0.610,-0.054
0.612,-0.048
0.614,-0.042
0.616,-0.038
0.618,-0.036
0.620,-0.035
0.622,-0.035
0.624,-0.034
0.626,-0.032
0.628,-0.029
0.630,-0.023
0.632,-0.017
0.634,-0.011
0.636,-0.005
0.638,-0.001
0.640,0.002
0.642,0.003
0.644,0.002
0.646,-0.001
0.648,-0.004
0.650,-0.007
0.652,-0.007
0.654,-0.004
0.656,0.003
0.658,0.013
0.660,0.025
0.662,0.039
0.664,0.050
0.666,0.058
0.668,0.060
0.670,0.056
0.672,0.046
0.674,0.031
0.676,0.013
0.678,-0.005
0.680,-0.021
0.682,-0.034
0.684,-0.043
0.686,-0.051
0.688,-0.055
0.690,-0.058
0.692,-0.059
0.694,-0.058
0.696,-0.055
0.698,-0.051
0.700,-0.047
0.702,-0.046
0.704,-0.047
0.706,-0.050
0.708,-0.055
0.710,-0.061
0.712,-0.065
0.714,-0.066
0.716,-0.065
0.718,-0.062
0.720,-0.057
0.722,-0.052
0.724,-0.049
0.726,-0.049
0.728,-0.053
0.730,-0.059
0.732,-0.066
0.734,-0.073
0.736,-0.076
0.738,-0.075
0.740,-0.071
0.742,-0.062
0.744,-0.050
0.746,-0.033
0.748,-0.013
0.750,0.010
0.752,0.034
0.754,0.056
0.756,0.072
0.758,0.082
0.760,0.088
0.762,0.095
0.764,0.107
0.766,0.130
0.768,0.164
0.770,0.206
0.772,0.248
0.774,0.280
0.776,0.294
0.778,0.286
0.780,0.257
0.782,0.211
0.784,0.154
0.786,0.092
0.788,0.030
0.790,-0.027
0.792,-0.075
0.794,-0.109
0.796,-0.127
0.798,-0.128
0.800,-0.115
0.802,-0.094
0.804,-0.070
0.806,-0.050
0.808,-0.037
0.810,-0.031
0.812,-0.031
0.814,-0.034
0.816,-0.040
0.818,-0.045
0.820,-0.049
0.822,-0.052
0.824,-0.052
0.826,-0.051
0.828,-0.049
0.830,-0.047
0.832,-0.046
0.834,-0.047
0.836,-0.048
0.838,-0.049
0.840,-0.049
0.842,-0.048
0.844,-0.045
0.846,-0.042
0.848,-0.041
0.850,-0.041
0.852,-0.043
0.854,-0.046
0.856,-0.049
0.858,-0.050
0.860,-0.049
0.862,-0.046
0.864,-0.041
0.866,-0.036
0.868,-0.032
0.870,-0.030
0.872,-0.030
0.874,-0.030
0.876,-0.031
0.878,-0.031
0.880,-0.029
0.882,-0.027
0.884,-0.025
0.886,-0.024
0.888,-0.023
0.890,-0.023
0.892,-0.023
0.894,-0.022
0.896,-0.022
0.898,-0.021
0.900,-0.019
0.902,-0.017
0.904,-0.015
0.906,-0.013
0.908,-0.010
0.910,-0.006
0.912,-0.001
0.914,0.004
0.916,0.008
0.918,0.009
0.920,0.009
0.922,0.006
0.924,0.002
0.926,-0.001
0.928,-0.003
0.930,-0.001
0.932,0.003
0.934,0.009
0.936,0.014
0.938,0.019
0.940,0.021
0.942,0.022
0.944,0.023
0.946,0.025
0.948,0.028
0.950,0.032
0.952,0.037
0.954,0.041
0.956,0.045
0.958,0.047
0.960,0.049
0.962,0.050
0.964,0.053
0.966,0.057
0.968,0.062
0.970,0.069
0.972,0.076
0.974,0.083
0.976,0.092
0.978,0.101
0.980,0.111
0.982,0.121
0.984,0.129
0.986,0.135
0.988,0.138
0.990,0.139
0.992,0.138
0.994,0.138
0.996,0.139
0.998,0.142
1.000,0.147
1.002,0.153
1.004,0.159
1.006,0.165
1.008,0.170
1.010,0.174
1.012,0.177
1.014,0.180
1.016,0.184
1.018,0.187
1.020,0.191
1.022,0.193
1.024,0.193
1.026,0.188
1.028,0.180
1.030,0.167
1.032,0.153
1.034,0.139
1.036,0.125
1.038,0.113
1.040,0.102
1.042,0.092
1.044,0.081
1.046,0.070
1.048,0.059
1.050,0.049
1.052,0.039
1.054,0.030
1.056,0.022
1.058,0.015
1.060,0.009
1.062,0.002
1.064,-0.004
1.066,-0.010
1.068,-0.016
1.070,-0.021
1.072,-0.026
1.074,-0.031
1.076,-0.036
1.078,-0.040
1.080,-0.045
1.082,-0.049
1.084,-0.053
1.086,-0.055
1.088,-0.056
1.090,-0.056
1.092,-0.054
1.094,-0.053
1.096,-0.052
1.098,-0.054
1.100,-0.057
1.102,-0.063
1.104,-0.068
1.106,-0.073
1.108,-0.074
1.110,-0.074
1.112,-0.071
1.114,-0.068
1.116,-0.065
1.118,-0.064
1.120,-0.063
1.122,-0.063
1.124,-0.063
1.126,-0.061
1.128,-0.059
1.130,-0.056
1.132,-0.054
1.134,-0.054
1.136,-0.056
1.138,-0.059
1.140,-0.062
1.142,-0.063
1.144,-0.063
1.146,-0.061
1.148,-0.058
1.150,-0.056
1.152,-0.055
1.154,-0.056
1.156,-0.057
1.158,-0.058
1.160,-0.059
1.162,-0.058
1.164,-0.057
1.166,-0.055
1.168,-0.054
1.170,-0.052
1.172,-0.051
1.174,-0.050
1.176,-0.049
1.178,-0.047
1.180,-0.047
1.182,-0.046
1.184,-0.045
1.186,-0.045
1.188,-0.044
1.190,-0.043
1.192,-0.043
1.194,-0.042
1.196,-0.042
1.198,-0.042
1.200,-0.042
1.202,-0.041
1.204,-0.040
1.206,-0.039
1.208,-0.039
1.210,-0.040
1.212,-0.043
1.214,-0.045
1.216,-0.046
1.218,-0.045
1.220,-0.044
1.222,-0.042
1.224,-0.042
1.226,-0.043
1.228,-0.047
1.230,-0.052
1.232,-0.056
1.234,-0.059
1.236,-0.059
1.238,-0.057
1.240,-0.052
1.242,-0.048
1.244,-0.046
1.246,-0.044
1.248,-0.044
1.250,-0.045
1.252,-0.044
1.254,-0.044
1.256,-0.043
1.258,-0.043
1.260,-0.046
1.262,-0.049
1.264,-0.053
1.266,-0.057
1.268,-0.058
1.270,-0.057
1.272,-0.055
1.274,-0.054
1.276,-0.054
1.278,-0.056
1.280,-0.059
1.282,-0.062
1.284,-0.062
1.286,-0.059
1.288,-0.054
1.290,-0.048
1.292,-0.043
1.294,-0.040
1.296,-0.039
1.298,-0.041
1.300,-0.044
1.302,-0.049
1.304,-0.053
1.306,-0.058
1.308,-0.062
1.310,-0.066
1.312,-0.068
1.314,-0.067
1.316,-0.064
1.318,-0.059
1.320,-0.052
1.322,-0.046
1.324,-0.042
1.326,-0.039
1.328,-0.037
1.330,-0.037
1.332,-0.038
1.334,-0.039
1.336,-0.041
1.338,-0.043
1.340,-0.045
1.342,-0.047
1.344,-0.049
1.346,-0.050
1.348,-0.048
1.350,-0.045
1.352,-0.040
1.354,-0.033
1.356,-0.026
1.358,-0.019
1.360,-0.013
1.362,-0.006
1.364,-0.001
1.366,0.003
1.368,0.005
1.370,0.004
1.372,0.002
1.374,-0.001
1.376,-0.002
1.378,0.001
1.380,0.007
1.382,0.017
1.384,0.029
1.386,0.042
1.388,0.053
1.390,0.061
1.392,0.066
1.394,0.066
1.396,0.063
1.398,0.056
1.400,0.045
1.402,0.033
1.404,0.020
1.406,0.007
1.408,-0.002
1.410,-0.010
1.412,-0.016
1.414,-0.022
1.416,-0.029
1.418,-0.037
1.420,-0.046
1.422,-0.055
1.424,-0.062
1.426,-0.066
1.428,-0.065
1.430,-0.062
1.432,-0.057
1.434,-0.053
1.436,-0.051
1.438,-0.051
1.440,-0.053
1.442,-0.054
1.444,-0.054
1.446,-0.051
1.448,-0.046
1.450,-0.041
1.452,-0.038
1.454,-0.038
1.456,-0.042
1.458,-0.048
1.460,-0.055
1.462,-0.061
1.464,-0.065
1.466,-0.066
1.468,-0.063
1.470,-0.056
1.472,-0.045
1.474,-0.028
1.476,-0.006
1.478,0.018
1.480,0.043
1.482,0.065
1.484,0.081
1.486,0.092
1.488,0.099
1.490,0.107
1.492,0.121
1.494,0.146
1.496,0.183
1.498,0.229
1.500,0.277
1.502,0.316
1.504,0.336
1.506,0.332
1.508,0.303
1.510,0.255
1.512,0.194
1.514,0.129
1.516,0.066
1.518,0.009
1.520,-0.037
1.522,-0.072
1.524,-0.093
1.526,-0.100
1.528,-0.094
1.530,-0.080
1.532,-0.063
1.534,-0.048
1.536,-0.039
1.538,-0.035
1.540,-0.037
1.542,-0.040
1.544,-0.043
1.546,-0.045
1.548,-0.046
1.550,-0.045
1.552,-0.045
1.554,-0.046
1.556,-0.047
1.558,-0.048
1.560,-0.049
1.562,-0.048
1.564,-0.044
1.566,-0.040
1.568,-0.034
1.570,-0.030
1.572,-0.026
1.574,-0.023
1.576,-0.022
1.578,-0.022
1.580,-0.024
1.582,-0.025
1.584,-0.027
1.586,-0.028
1.588,-0.029
1.590,-0.028
1.592,-0.027
1.594,-0.026
1.596,-0.026
1.598,-0.027
1.600,-0.029
1.602,-0.029
1.604,-0.026
1.606,-0.021
1.608,-0.014
1.610,-0.008
1.612,-0.004
1.614,-0.002
1.616,-0.003
1.618,-0.006
1.620,-0.008
1.622,-0.009
1.624,-0.009
1.626,-0.009
1.628,-0.008
1.630,-0.008
1.632,-0.008
1.634,-0.007
1.636,-0.004
1.638,-0.000
1.640,0.004
1.642,0.007
1.644,0.009
1.646,0.010
1.648,0.009
1.650,0.009
1.652,0.008
1.654,0.009
1.656,0.009
1.658,0.009
1.660,0.009
1.662,0.009
1.664,0.010
1.666,0.012
1.668,0.016
1.670,0.021
1.672,0.028
1.674,0.034
1.676,0.040
1.678,0.043
1.680,0.043
1.682,0.041
1.684,0.038
1.686,0.036
1.688,0.038
1.690,0.043
1.692,0.052
1.694,0.061
1.696,0.069
1.698,0.075
1.700,0.079
1.702,0.082
1.704,0.086
1.706,0.093
1.708,0.102
1.710,0.113
1.712,0.125
1.714,0.135
1.716,0.144
1.718,0.149
1.720,0.151
1.722,0.152
1.724,0.153
1.726,0.154
1.728,0.155
1.730,0.157
1.732,0.160
1.734,0.164
1.736,0.169
1.738,0.175
1.740,0.183
1.742,0.190
1.744,0.196
1.746,0.198
1.748,0.197
1.750,0.192
1.752,0.185
1.754,0.178
1.756,0.173
1.758,0.169
1.760,0.165
1.762,0.160
1.764,0.152
1.766,0.140
1.768,0.124
1.770,0.106
1.772,0.087
1.774,0.071
1.776,0.058
1.778,0.049
1.780,0.043
1.782,0.039
1.784,0.035
1.786,0.031
1.788,0.025
1.790,0.017
1.792,0.008
1.794,-0.003
1.796,-0.013
1.798,-0.022
1.800,-0.029
1.802,-0.034
1.804,-0.038
1.806,-0.041
1.808,-0.044
1.810,-0.048
1.812,-0.051
1.814,-0.054
1.816,-0.056
1.818,-0.057
1.820,-0.059
1.822,-0.060
1.824,-0.062
1.826,-0.063
1.828,-0.063
1.830,-0.062
1.832,-0.061
1.834,-0.061
1.836,-0.061
1.838,-0.063
1.840,-0.066
1.842,-0.067
1.844,-0.066
1.846,-0.063
1.848,-0.058
1.850,-0.053
1.852,-0.049
1.854,-0.047
1.856,-0.047
1.858,-0.049
1.860,-0.051
1.862,-0.052
1.864,-0.051
1.866,-0.051
1.868,-0.050
1.870,-0.050
1.872,-0.051
1.874,-0.053
1.876,-0.054
1.878,-0.054
1.880,-0.054
1.882,-0.054
1.884,-0.054
1.886,-0.055
1.888,-0.055
1.890,-0.055
1.892,-0.054
1.894,-0.052
1.896,-0.049
1.898,-0.047
1.900,-0.045
1.902,-0.045
1.904,-0.045
1.906,-0.047
1.908,-0.048
1.910,-0.048
1.912,-0.046
1.914,-0.043
1.916,-0.039
1.918,-0.035
1.920,-0.034
1.922,-0.035
1.924,-0.039
1.926,-0.043
1.928,-0.047
1.930,-0.048
1.932,-0.048
1.934,-0.046
1.936,-0.045
1.938,-0.046
1.940,-0.048
1.942,-0.051
1.944,-0.053
1.946,-0.052
1.948,-0.048
1.950,-0.041
1.952,-0.034
1.954,-0.029
1.956,-0.026
1.958,-0.026
1.960,-0.028
1.962,-0.032
1.964,-0.036
1.966,-0.040
1.968,-0.043
1.970,-0.047
1.972,-0.052
1.974,-0.057
1.976,-0.061
1.978,-0.063
1.980,-0.062
1.982,-0.058
1.984,-0.052
1.986,-0.045
1.988,-0.039
1.990,-0.037
1.992,-0.039
1.994,-0.044
1.996,-0.051
1.998,-0.058
2.000,-0.063
2.002,-0.065
2.004,-0.066
2.006,-0.064
2.008,-0.061
2.010,-0.057
2.012,-0.053
2.014,-0.050
2.016,-0.048
2.018,-0.048
2.020,-0.049
2.022,-0.051
2.024,-0.054
2.026,-0.056
2.028,-0.059
2.030,-0.060
2.032,-0.059
2.034,-0.057
2.036,-0.053
2.038,-0.047
2.040,-0.042
2.042,-0.039
2.044,-0.040
2.046,-0.045
2.048,-0.052
2.050,-0.061
2.052,-0.067
2.054,-0.071
2.056,-0.070
2.058,-0.066
2.060,-0.059
2.062,-0.050
2.064,-0.041
2.066,-0.034
2.068,-0.027
2.070,-0.023
2.072,-0.019
2.074,-0.017
2.076,-0.015
2.078,-0.013
2.080,-0.011
2.082,-0.009
2.084,-0.008
2.086,-0.009
2.088,-0.012
2.090,-0.016
2.092,-0.018
2.094,-0.018
2.096,-0.012
2.098,-0.001
2.100,0.013
2.102,0.029
2.104,0.043
2.106,0.052
2.108,0.056
2.110,0.054
2.112,0.046
2.114,0.035
2.116,0.020
2.118,0.003
2.120,-0.014
2.122,-0.029
2.124,-0.040
2.126,-0.047
2.128,-0.048
2.130,-0.045
2.132,-0.041
2.134,-0.037
2.136,-0.036
2.138,-0.039
2.140,-0.045
2.142,-0.051
2.144,-0.058
2.146,-0.063
2.148,-0.066
2.150,-0.068
2.152,-0.069
2.154,-0.071
2.156,-0.072
2.158,-0.072
2.160,-0.071
2.162,-0.069
2.164,-0.066
2.166,-0.063
2.168,-0.061
2.170,-0.061
2.172,-0.063
2.174,-0.067
2.176,-0.072
2.178,-0.075
2.180,-0.076
2.182,-0.074
2.184,-0.068
2.186,-0.057
2.188,-0.041
2.190,-0.022
2.192,-0.000
2.194,0.023
2.196,0.045
2.198,0.064
2.200,0.079
2.202,0.091
2.204,0.102
2.206,0.118
2.208,0.143
2.210,0.179
2.212,0.221
2.214,0.265
2.216,0.301
2.218,0.320
2.220,0.318
2.222,0.296
2.224,0.255
2.226,0.201
2.228,0.140
2.230,0.076
2.232,0.014
2.234,-0.039
2.236,-0.079
2.238,-0.103
2.240,-0.108
2.242,-0.098
2.244,-0.080
2.246,-0.060
2.248,-0.046
2.250,-0.038
2.252,-0.038
2.254,-0.041
2.256,-0.045
2.258,-0.047
2.260,-0.048
2.262,-0.048
2.264,-0.048
2.266,-0.048
2.268,-0.048
2.270,-0.048
2.272,-0.047
2.274,-0.045
2.276,-0.043
2.278,-0.043
2.280,-0.044
2.282,-0.046
2.284,-0.049
2.286,-0.051
2.288,-0.052
2.290,-0.052
2.292,-0.051
2.294,-0.049
2.296,-0.046
2.298,-0.044
2.300,-0.042
2.302,-0.040
2.304,-0.038
2.306,-0.036
2.308,-0.034
2.310,-0.033
2.312,-0.032
2.314,-0.032
2.316,-0.033
2.318,-0.034
2.320,-0.034
2.322,-0.031
2.324,-0.026
2.326,-0.019
2.328,-0.012
2.330,-0.007
2.332,-0.004
2.334,-0.005
2.336,-0.007
2.338,-0.009
2.340,-0.011
2.342,-0.010
2.344,-0.008
2.346,-0.004
2.348,0.001
2.350,0.006
2.352,0.009
2.354,0.010
2.356,0.008
2.358,0.005
2.360,0.001
2.362,-0.002
2.364,-0.002
2.366,-0.001
2.368,0.002
2.370,0.006
2.372,0.010
2.374,0.015
2.376,0.019
2.378,0.023
2.380,0.025
2.382,0.027
2.384,0.028
2.386,0.028
2.388,0.029
2.390,0.030
2.392,0.033
2.394,0.037
2.396,0.042
2.398,0.047
2.400,0.051
2.402,0.054
2.404,0.056
2.406,0.058
2.408,0.060
2.410,0.062
2.412,0.066
2.414,0.072
2.416,0.079
2.418,0.087
2.420,0.096
2.422,0.104
2.424,0.112
2.426,0.119
2.428,0.124
2.430,0.130
2.432,0.135
2.434,0.140
2.436,0.145
2.438,0.150
2.440,0.153
2.442,0.156
2.444,0.158
2.446,0.159
2.448,0.160
2.450,0.161
2.452,0.163
2.454,0.166
2.456,0.169
2.458,0.172
2.460,0.175
2.462,0.176
2.464,0.177
2.466,0.176
2.468,0.173
2.470,0.168
2.472,0.161
2.474,0.153
2.476,0.144
2.478,0.133
2.480,0.122
2.482,0.110
2.484,0.098
2.486,0.085
2.488,0.073
2.490,0.062
2.492,0.051
2.494,0.042
2.496,0.033
2.498,0.027
2.500,0.023
2.502,0.022
2.504,0.023
2.506,0.022
2.508,0.018
2.510,0.009
2.512,-0.005
2.514,-0.020
2.516,-0.035
2.518,-0.047
2.520,-0.055
2.522,-0.059
2.524,-0.061
2.526,-0.062
2.528,-0.063
2.530,-0.064
2.532,-0.065
2.534,-0.064
2.536,-0.062
2.538,-0.061
2.540,-0.061
2.542,-0.063
2.544,-0.067
2.546,-0.070
2.548,-0.073
2.550,-0.073
2.552,-0.073
2.554,-0.072
2.556,-0.073
2.558,-0.075
2.560,-0.078
2.562,-0.081
2.564,-0.083
2.566,-0.083
2.568,-0.081
2.570,-0.077
2.572,-0.073
2.574,-0.069
2.576,-0.065
2.578,-0.062
2.580,-0.061
2.582,-0.060
2.584,-0.061
2.586,-0.062
2.588,-0.064
2.590,-0.066
2.592,-0.068
2.594,-0.069
2.596,-0.068
2.598,-0.067
2.600,-0.065
2.602,-0.063
2.604,-0.062
2.606,-0.061
2.608,-0.059
2.610,-0.058
2.612,-0.056
2.614,-0.053
2.616,-0.052
2.618,-0.051
2.620,-0.052
2.622,-0.052
2.624,-0.051
2.626,-0.048
2.628,-0.043
2.630,-0.038
2.632,-0.035
2.634,-0.033
2.636,-0.035
2.638,-0.038
2.640,-0.042
2.642,-0.046
2.644,-0.048
2.646,-0.049
2.648,-0.050
2.650,-0.051
2.652,-0.054
2.654,-0.056
2.656,-0.058
2.658,-0.058
2.660,-0.058
2.662,-0.057
2.664,-0.056
2.666,-0.056
2.668,-0.056
2.670,-0.055
2.672,-0.053
2.674,-0.049
2.676,-0.044
2.678,-0.041
2.680,-0.039
2.682,-0.041
2.684,-0.045
2.686,-0.050
2.688,-0.055
2.690,-0.058
2.692,-0.060
2.694,-0.063
2.696,-0.066
2.698,-0.069
2.700,-0.070
2.702,-0.069
2.704,-0.063
2.706,-0.055
2.708,-0.045
2.710,-0.036
2.712,-0.031
2.714,-0.030
2.716,-0.032
2.718,-0.036
2.720,-0.042
2.722,-0.047
2.724,-0.052
2.726,-0.055
2.728,-0.056
2.730,-0.055
2.732,-0.053
2.734,-0.049
2.736,-0.046
2.738,-0.042
2.740,-0.039
2.742,-0.036
2.744,-0.035
2.746,-0.035
2.748,-0.034
2.750,-0.033
2.752,-0.030
2.754,-0.023
2.756,-0.013
2.758,-0.002
2.760,0.009
2.762,0.015
2.764,0.016
2.766,0.010
2.768,-0.000
2.770,-0.012
2.772,-0.020
2.774,-0.023
2.776,-0.019
2.778,-0.008
2.780,0.008
2.782,0.024
2.784,0.038
2.786,0.047
2.788,0.049
2.790,0.045
2.792,0.036
2.794,0.025
2.796,0.013
2.798,0.002
2.800,-0.008
2.802,-0.017
2.804,-0.026
2.806,-0.035
2.808,-0.043
2.810,-0.050
2.812,-0.056
2.814,-0.060
2.816,-0.063
2.818,-0.064
2.820,-0.064
2.822,-0.063
2.824,-0.061
2.826,-0.057
2.828,-0.054
2.830,-0.051
2.832,-0.050
2.834,-0.050
2.836,-0.052
2.838,-0.054
2.840,-0.055
2.842,-0.055
2.844,-0.053
2.846,-0.051
2.848,-0.049
2.850,-0.049
2.852,-0.050
2.854,-0.053
2.856,-0.056
2.858,-0.058
2.860,-0.058
2.862,-0.054
2.864,-0.045
2.866,-0.031
2.868,-0.011
2.870,0.011
2.872,0.035
2.874,0.056
2.876,0.071
2.878,0.081
2.880,0.086
2.882,0.092
2.884,0.104
2.886,0.125
2.888,0.157
2.890,0.198
2.892,0.241
2.894,0.276
2.896,0.297
2.898,0.297
2.900,0.276
2.902,0.238
2.904,0.186
2.906,0.128
2.908,0.066
2.910,0.007
2.912,-0.045
2.914,-0.085
2.916,-0.111
2.918,-0.119
2.920,-0.113
2.922,-0.096
2.924,-0.074
2.926,-0.053
2.928,-0.037
2.930,-0.027
2.932,-0.023
2.934,-0.022
2.936,-0.024
2.938,-0.026
2.940,-0.029
2.942,-0.031
2.944,-0.033
2.946,-0.035
2.948,-0.036
2.950,-0.037
2.952,-0.037
2.954,-0.037
2.956,-0.036
2.958,-0.034
2.960,-0.032
2.962,-0.030
2.964,-0.027
2.966,-0.024
2.968,-0.021
2.970,-0.020
2.972,-0.020
2.974,-0.022
2.976,-0.024
2.978,-0.026
2.980,-0.025
2.982,-0.023
2.984,-0.019
2.986,-0.015
2.988,-0.013
2.990,-0.013
2.992,-0.015
2.994,-0.016
2.996,-0.016
2.998,-0.014
3.000,-0.010
3.002,-0.006
3.004,-0.003
3.006,-0.002
3.008,-0.003
3.010,-0.006
3.012,-0.009
3.014,-0.009
3.016,-0.007
3.018,-0.003
3.020,0.002
3.022,0.006
3.024,0.009
3.026,0.009
3.028,0.009
3.030,0.008
3.032,0.008
3.034,0.009
3.036,0.010
3.038,0.010
3.040,0.010
3.042,0.010
3.044,0.011
3.046,0.015
3.048,0.021
3.050,0.029
3.052,0.037
3.054,0.042
3.056,0.045
3.058,0.045
3.060,0.044
3.062,0.042
3.064,0.041
3.066,0.041
3.068,0.041
3.070,0.043
3.072,0.047
3.074,0.052
3.076,0.060
3.078,0.068
3.080,0.077
3.082,0.084
3.084,0.090
3.086,0.094
3.088,0.097
3.090,0.100
3.092,0.102
3.094,0.106
3.096,0.111
3.098,0.116
3.100,0.123
3.102,0.131
3.104,0.138
3.106,0.146
3.108,0.152
3.110,0.158
3.112,0.162
3.114,0.166
3.116,0.170
3.118,0.173
3.120,0.177
3.122,0.182
3.124,0.186
3.126,0.191
3.128,0.194
3.130,0.197
3.132,0.199
3.134,0.199
3.136,0.198
3.138,0.195
3.140,0.192
3.142,0.189
3.144,0.187
3.146,0.186
3.148,0.187
3.150,0.187
3.152,0.184
3.154,0.178
3.156,0.166
3.158,0.149
3.160,0.129
3.162,0.109
3.164,0.091
3.166,0.077
3.168,0.067
3.170,0.059
3.172,0.053
3.174,0.046
3.176,0.038
3.178,0.030
3.180,0.022
3.182,0.013
3.184,0.005
3.186,-0.003
3.188,-0.011
3.190,-0.018
3.192,-0.024
3.194,-0.027
3.196,-0.028
3.198,-0.027
3.200,-0.025
3.202,-0.025
3.204,-0.026
3.206,-0.030
3.208,-0.035
3.210,-0.041
3.212,-0.046
3.214,-0.048
3.216,-0.049
3.218,-0.048
3.220,-0.046
3.222,-0.046
3.224,-0.047
3.226,-0.049
3.228,-0.052
3.230,-0.054
3.232,-0.053
3.234,-0.051
3.236,-0.046
3.238,-0.040
3.240,-0.035
3.242,-0.032
3.244,-0.033
3.246,-0.037
3.248,-0.043
3.250,-0.050
3.252,-0.055
3.254,-0.058
3.256,-0.058
3.258,-0.055
3.260,-0.052
3.262,-0.049
3.264,-0.046
3.266,-0.043
3.268,-0.040
3.270,-0.039
3.272,-0.038
3.274,-0.039
3.276,-0.041
3.278,-0.043
3.280,-0.044
3.282,-0.043
3.284,-0.040
3.286,-0.037
3.288,-0.032
3.290,-0.028
3.292,-0.025
3.294,-0.023
3.296,-0.022
3.298,-0.022
3.300,-0.022
3.302,-0.021
3.304,-0.019
3.306,-0.015
3.308,-0.012
3.310,-0.009
3.312,-0.008
3.314,-0.010
3.316,-0.014
3.318,-0.019
3.320,-0.023
3.322,-0.026
3.324,-0.027
3.326,-0.027
3.328,-0.026
3.330,-0.025
3.332,-0.025
3.334,-0.025
3.336,-0.025
3.338,-0.024
3.340,-0.023
3.342,-0.021
3.344,-0.020
3.346,-0.019
3.348,-0.020
3.350,-0.023
3.352,-0.026
3.354,-0.030
3.356,-0.033
3.358,-0.036
3.360,-0.038
3.362,-0.039
3.364,-0.038
3.366,-0.037
3.368,-0.035
3.370,-0.032
3.372,-0.028
3.374,-0.024
3.376,-0.019
3.378,-0.014
3.380,-0.010
3.382,-0.006
3.384,-0.003
3.386,0.000
3.388,0.003
3.390,0.006
3.392,0.008
3.394,0.008
3.396,0.006
3.398,0.003
3.400,-0.001
3.402,-0.003
3.404,-0.001
3.406,0.003
3.408,0.011
3.410,0.020
3.412,0.029
3.414,0.036
3.416,0.040
3.418,0.040
3.420,0.037
3.422,0.030
3.424,0.020
3.426,0.009
3.428,-0.003
3.430,-0.014
3.432,-0.023
3.434,-0.029
3.436,-0.033
3.438,-0.036
3.440,-0.039
3.442,-0.044
3.444,-0.049
3.446,-0.053
3.448,-0.056
3.450,-0.055
3.452,-0.053
3.454,-0.050
3.456,-0.049
3.458,-0.050
3.460,-0.054
3.462,-0.060
3.464,-0.065
3.466,-0.069
3.468,-0.069
3.470,-0.067
3.472,-0.063
3.474,-0.060
3.476,-0.057
3.478,-0.057
3.480,-0.059
3.482,-0.062
3.484,-0.066
3.486,-0.069
3.488,-0.069
3.490,-0.067
3.492,-0.059
3.494,-0.047
3.496,-0.030
3.498,-0.009
3.500,0.013
3.502,0.036
3.504,0.057
3.506,0.073
3.508,0.085
3.510,0.092
3.512,0.098
3.514,0.107
3.516,0.124
3.518,0.150
3.520,0.185
3.522,0.222
3.524,0.252
3.526,0.267
3.528,0.262
3.530,0.234
3.532,0.189
3.534,0.132
3.536,0.070
3.538,0.010
3.540,-0.042
3.542,-0.085
3.544,-0.113
3.546,-0.127
3.548,-0.126
3.550,-0.114
3.552,-0.095
3.554,-0.074
3.556,-0.055
3.558,-0.040
3.560,-0.030
3.562,-0.024
3.564,-0.022
3.566,-0.024
3.568,-0.028
3.570,-0.034
3.572,-0.040
3.574,-0.044
3.576,-0.047
3.578,-0.050
3.580,-0.052
3.582,-0.053
3.584,-0.055
3.586,-0.055
3.588,-0.053
3.590,-0.048
3.592,-0.042
3.594,-0.035
3.596,-0.029
3.598,-0.025
3.600,-0.025
3.602,-0.027
3.604,-0.030
3.606,-0.033
3.608,-0.034
3.610,-0.032
3.612,-0.028
3.614,-0.023
3.616,-0.018
3.618,-0.015
3.620,-0.014
3.622,-0.015
3.624,-0.017
3.626,-0.019
3.628,-0.021
3.630,-0.023
3.632,-0.024
3.634,-0.025
3.636,-0.025
3.638,-0.024
3.640,-0.024
3.642,-0.024
3.644,-0.024
3.646,-0.024
3.648,-0.025
3.650,-0.024
3.652,-0.022
3.654,-0.019
3.656,-0.016
3.658,-0.012
3.660,-0.009
3.662,-0.006
3.664,-0.003
3.666,-0.000
3.668,0.001
3.670,0.002
3.672,0.001
3.674,0.000
3.676,-0.002
3.678,-0.004
3.680,-0.006
3.682,-0.007
3.684,-0.006
3.686,-0.004
3.688,0.001
3.690,0.007
3.692,0.014
3.694,0.022
3.696,0.028
3.698,0.033
3.700,0.036
3.702,0.037
3.704,0.039
3.706,0.043
3.708,0.048
3.710,0.054
3.712,0.060
3.714,0.064
3.716,0.066
3.718,0.068
3.720,0.069
3.722,0.072
3.724,0.076
3.726,0.081
3.728,0.087
3.730,0.092
3.732,0.099
3.734,0.106
3.736,0.114
3.738,0.122
3.740,0.130
3.742,0.137
3.744,0.142
3.746,0.144
3.748,0.145
3.750,0.144
3.752,0.144
3.754,0.144
3.756,0.146
3.758,0.150
3.760,0.155
3.762,0.160
3.764,0.165
3.766,0.168
3.768,0.169
3.770,0.167
3.772,0.161
3.774,0.152
3.776,0.141
3.778,0.129
3.780,0.117
3.782,0.107
3.784,0.098
3.786,0.089
3.788,0.080
3.790,0.071
3.792,0.061
3.794,0.050
3.796,0.040
3.798,0.030
3.800,0.021
3.802,0.012
3.804,0.003
3.806,-0.006
3.808,-0.015
3.810,-0.023
3.812,-0.030
3.814,-0.036
3.816,-0.040
3.818,-0.043
3.820,-0.046
3.822,-0.049
3.824,-0.052
3.826,-0.056
3.828,-0.060
3.830,-0.064
3.832,-0.067
3.834,-0.069
3.836,-0.071
3.838,-0.072
3.840,-0.073
3.842,-0.074
3.844,-0.075
3.846,-0.075
3.848,-0.075
3.850,-0.075
3.852,-0.075
3.854,-0.073
3.856,-0.072
3.858,-0.070
3.860,-0.069
3.862,-0.068
3.864,-0.069
3.866,-0.070
3.868,-0.070
3.870,-0.070
3.872,-0.069
3.874,-0.068
3.876,-0.066
3.878,-0.065
3.880,-0.064
3.882,-0.064
3.884,-0.064
3.886,-0.063
3.888,-0.061
3.890,-0.058
3.892,-0.055
3.894,-0.054
3.896,-0.055
3.898,-0.058
3.900,-0.060
3.902,-0.063
3.904,-0.064
3.906,-0.064
3.908,-0.063
3.910,-0.063
3.912,-0.063
3.914,-0.063
3.916,-0.061
3.918,-0.058
3.920,-0.054
3.922,-0.050
3.924,-0.046
3.926,-0.044
3.928,-0.043
3.930,-0.044
3.932,-0.045
3.934,-0.047
3.936,-0.049
3.938,-0.052
3.940,-0.054
3.942,-0.055
3.944,-0.055
3.946,-0.054
3.948,-0.053
3.950,-0.052
3.952,-0.054
3.954,-0.055
3.956,-0.057
3.958,-0.058
3.960,-0.057
3.962,-0.056
3.964,-0.055
3.966,-0.056
3.968,-0.058
3.970,-0.060
3.972,-0.063
3.974,-0.064
3.976,-0.065
3.978,-0.065
3.980,-0.066
3.982,-0.067
3.984,-0.070
3.986,-0.071
3.988,-0.069
3.990,-0.065
3.992,-0.057
3.994,-0.049
3.996,-0.042
3.998,-0.037
4.000,-0.036
4.002,-0.037
4.004,-0.038
4.006,-0.037
4.008,-0.034
4.010,-0.029
4.012,-0.024
4.014,-0.020
4.016,-0.018
4.018,-0.019
4.020,-0.022
4.022,-0.026
4.024,-0.029
4.026,-0.031
4.028,-0.031
4.030,-0.028
4.032,-0.022
4.034,-0.013
4.036,-0.003
4.038,0.009
4.040,0.019
4.042,0.025
4.044,0.027
4.046,0.023
4.048,0.013
4.050,0.000
4.052,-0.015
4.054,-0.029
4.056,-0.041
4.058,-0.048
4.060,-0.053
4.062,-0.055
4.064,-0.056
4.066,-0.059
4.068,-0.064
4.070,-0.070
4.072,-0.075
4.074,-0.078
4.076,-0.078
4.078,-0.076
4.080,-0.073
4.082,-0.072
4.084,-0.073
4.086,-0.074
4.088,-0.075
4.090,-0.075
4.092,-0.074
4.094,-0.072
4.096,-0.071
4.098,-0.072
4.100,-0.074
4.102,-0.076
4.104,-0.079
4.106,-0.082
4.108,-0.084
4.110,-0.085
4.112,-0.086
4.114,-0.084
4.116,-0.079
4.118,-0.070
4.120,-0.058
4.122,-0.042
4.124,-0.022
4.126,0.001
4.128,0.025
4.130,0.048
4.132,0.067
4.134,0.082
4.136,0.093
4.138,0.103
4.140,0.118
4.142,0.141
4.144,0.174
4.146,0.214
4.148,0.254
4.150,0.286
4.152,0.301
4.154,0.295
4.156,0.267
4.158,0.221
4.160,0.163
4.162,0.098
4.164,0.035
4.166,-0.021
4.168,-0.065
4.170,-0.095
4.172,-0.110
4.174,-0.110
4.176,-0.097
4.178,-0.077
4.180,-0.055
4.182,-0.036
4.184,-0.023
4.186,-0.019
4.188,-0.022
4.190,-0.031
4.192,-0.042
4.194,-0.052
4.196,-0.059
4.198,-0.061
4.200,-0.058
4.202,-0.054
4.204,-0.048
4.206,-0.045
4.208,-0.043
4.210,-0.044
4.212,-0.047
4.214,-0.049
4.216,-0.052
4.218,-0.054
4.220,-0.055
4.222,-0.056
4.224,-0.055
4.226,-0.055
4.228,-0.053
4.230,-0.052
4.232,-0.050
4.234,-0.048
4.236,-0.045
4.238,-0.042
4.240,-0.038
4.242,-0.035
4.244,-0.032
4.246,-0.031
4.248,-0.031
4.250,-0.033
4.252,-0.034
4.254,-0.034
4.256,-0.032
4.258,-0.028
4.260,-0.023
4.262,-0.018
4.264,-0.015
4.266,-0.013
4.268,-0.012
4.270,-0.010
4.272,-0.007
4.274,-0.003
4.276,0.002
4.278,0.006
4.280,0.008
4.282,0.008
4.284,0.005
4.286,0.001
4.288,-0.003
4.290,-0.006
4.292,-0.008
4.294,-0.007
4.296,-0.005
4.298,-0.001
4.300,0.003
4.302,0.006
4.304,0.009
4.306,0.013
4.308,0.017
4.310,0.022
4.312,0.027
4.314,0.031
4.316,0.032
4.318,0.030
4.320,0.026
4.322,0.023
4.324,0.022
4.326,0.024
4.328,0.029
4.330,0.036
4.332,0.043
4.334,0.049
4.336,0.055
4.338,0.059
4.340,0.063
4.342,0.067
4.344,0.072
4.346,0.077
4.348,0.082
4.350,0.088
4.352,0.094
4.354,0.100
4.356,0.108
4.358,0.117
4.360,0.126
4.362,0.134
4.364,0.141
4.366,0.146
4.368,0.149
4.370,0.152
4.372,0.154
4.374,0.156
4.376,0.158
4.378,0.161
4.380,0.164
4.382,0.167
4.384,0.168
4.386,0.169
4.388,0.169
4.390,0.167
4.392,0.163
4.394,0.160
4.396,0.156
4.398,0.153
4.400,0.150
4.402,0.149
4.404,0.147
4.406,0.144
4.408,0.138
4.410,0.128
4.412,0.116
4.414,0.102
4.416,0.087
4.418,0.072
4.420,0.057
4.422,0.043
4.424,0.031
4.426,0.020
4.428,0.011
4.430,0.004
4.432,-0.000
4.434,-0.004
4.436,-0.007
4.438,-0.012
4.440,-0.018
4.442,-0.025
4.444,-0.032
4.446,-0.038
4.448,-0.041
4.450,-0.042
4.452,-0.041
4.454,-0.039
4.456,-0.038
4.458,-0.039
4.460,-0.041
4.462,-0.045
4.464,-0.049
4.466,-0.053
4.468,-0.056
4.470,-0.058
4.472,-0.060
4.474,-0.061
4.476,-0.061
4.478,-0.060
4.480,-0.057
4.482,-0.053
4.484,-0.050
4.486,-0.047
4.488,-0.046
4.490,-0.046
4.492,-0.047
4.494,-0.048
4.496,-0.048
4.498,-0.047
4.500,-0.046
4.502,-0.045
4.504,-0.044
4.506,-0.043
4.508,-0.043
4.510,-0.044
4.512,-0.046
4.514,-0.049
4.516,-0.052
4.518,-0.055
4.520,-0.057
4.522,-0.059
4.524,-0.059
4.526,-0.058
4.528,-0.057
4.530,-0.055
4.532,-0.053
4.534,-0.051
4.536,-0.049
4.538,-0.046
4.540,-0.043
4.542,-0.039
4.544,-0.037
4.546,-0.037
4.548,-0.038
4.550,-0.040
4.552,-0.042
4.554,-0.045
4.556,-0.048
4.558,-0.051
4.560,-0.055
4.562,-0.058
4.564,-0.060
4.566,-0.060
4.568,-0.058
4.570,-0.054
4.572,-0.050
4.574,-0.048
4.576,-0.047
4.578,-0.047
4.580,-0.048
4.582,-0.049
4.584,-0.049
4.586,-0.049
4.588,-0.049
4.590,-0.050
4.592,-0.051
4.594,-0.051
4.596,-0.051
4.598,-0.050
4.600,-0.049
4.602,-0.049
4.604,-0.049
4.606,-0.051
4.608,-0.052
4.610,-0.054
4.612,-0.054
4.614,-0.053
4.616,-0.050
4.618,-0.046
4.620,-0.040
4.622,-0.034
4.624,-0.028
4.626,-0.024
4.628,-0.021
4.630,-0.020
4.632,-0.019
4.634,-0.017
4.636,-0.015
4.638,-0.012
4.640,-0.009
4.642,-0.007
4.644,-0.006
4.646,-0.006
4.648,-0.007
4.650,-0.008
4.652,-0.008
4.654,-0.008
4.656,-0.006
4.658,-0.001
4.660,0.006
4.662,0.015
4.664,0.024
4.666,0.031
4.668,0.036
4.670,0.037
4.672,0.033
4.674,0.026
4.676,0.014
4.678,0.000
4.680,-0.014
4.682,-0.028
4.684,-0.039
4.686,-0.048
4.688,-0.054
4.690,-0.058
4.692,-0.060
4.694,-0.062
4.696,-0.062
4.698,-0.061
4.700,-0.058
4.702,-0.055
4.704,-0.053
4.706,-0.053
4.708,-0.055
4.710,-0.060
4.712,-0.066
4.714,-0.070
4.716,-0.071
4.718,-0.069
4.720,-0.065
4.722,-0.059
4.724,-0.055
4.726,-0.052
4.728,-0.052
4.730,-0.054
4.732,-0.057
4.734,-0.061
4.736,-0.064
4.738,-0.067
4.740,-0.068
4.742,-0.067
4.744,-0.060
4.746,-0.047
4.748,-0.028
4.750,-0.003
4.752,0.024
4.754,0.050
4.756,0.072
4.758,0.087
4.760,0.096
4.762,0.102
4.764,0.111
4.766,0.127
4.768,0.155
4.770,0.194
4.772,0.238
4.774,0.278
4.776,0.306
4.778,0.313
4.780,0.298
4.782,0.262
4.784,0.211
4.786,0.152
4.788,0.089
4.790,0.029
4.792,-0.024
4.794,-0.066
4.796,-0.093
4.798,-0.103
4.800,-0.098
4.802,-0.082
4.804,-0.062
4.806,-0.044
4.808,-0.033
4.810,-0.029
4.812,-0.031
4.814,-0.037
4.816,-0.043
4.818,-0.048
4.820,-0.050
4.822,-0.051
4.824,-0.049
4.826,-0.047
4.828,-0.045
4.830,-0.043
4.832,-0.041
4.834,-0.040
4.836,-0.040
4.838,-0.039
4.840,-0.038
4.842,-0.037
4.844,-0.034
4.846,-0.031
4.848,-0.029
4.850,-0.027
4.852,-0.027
4.854,-0.029
4.856,-0.032
4.858,-0.035
4.860,-0.036
4.862,-0.036
4.864,-0.032
4.866,-0.027
4.868,-0.022
4.870,-0.019
4.872,-0.019
4.874,-0.023
4.876,-0.028
4.878,-0.034
4.880,-0.037
4.882,-0.037
4.884,-0.034
4.886,-0.029
4.888,-0.023
4.890,-0.018
4.892,-0.014
4.894,-0.012
4.896,-0.009
4.898,-0.007
4.900,-0.005
4.902,-0.003
4.904,-0.001
4.906,0.001
4.908,0.001
4.910,0.002
4.912,0.001
4.914,0.001
4.916,0.002
4.918,0.004
4.920,0.007
4.922,0.010
4.924,0.012
4.926,0.013
4.928,0.012
4.930,0.011
4.932,0.011
4.934,0.013
4.936,0.016
4.938,0.021
4.940,0.027
4.942,0.032
4.944,0.034
4.946,0.035
4.948,0.034
4.950,0.033
4.952,0.033
4.954,0.035
4.956,0.039
4.958,0.046
4.960,0.055
4.962,0.063
4.964,0.071
4.966,0.078
4.968,0.084
4.970,0.089
4.972,0.094
4.974,0.098
4.976,0.101
4.978,0.104
4.980,0.107
4.982,0.109
4.984,0.112
4.986,0.116
4.988,0.121
4.990,0.128
4.992,0.135
4.994,0.141
4.996,0.145
4.998,0.145
5.000,0.144
5.002,0.141
5.004,0.139
5.006,0.138
5.008,0.140
5.010,0.144
5.012,0.148
5.014,0.153
5.016,0.156
5.018,0.158
5.020,0.157
5.022,0.155
5.024,0.150
5.026,0.144
5.028,0.137
5.030,0.130
5.032,0.124
5.034,0.118
5.036,0.113
5.038,0.106
5.040,0.097
5.042,0.086
5.044,0.073
5.046,0.058
5.048,0.044
5.050,0.031
5.052,0.021
5.054,0.012
5.056,0.005
5.058,-0.003
5.060,-0.010
5.062,-0.016
5.064,-0.021
5.066,-0.023
5.068,-0.022
5.070,-0.021
5.072,-0.022
5.074,-0.025
5.076,-0.031
5.078,-0.039
5.080,-0.047
5.082,-0.053
5.084,-0.056
5.086,-0.056
5.088,-0.054
5.090,-0.053
5.092,-0.054
5.094,-0.058
5.096,-0.062
5.098,-0.066
5.100,-0.069
5.102,-0.070
5.104,-0.069
5.106,-0.069
5.108,-0.069
5.110,-0.070
5.112,-0.072
5.114,-0.073
5.116,-0.073
5.118,-0.070
5.120,-0.066
5.122,-0.063
5.124,-0.061
5.126,-0.061
5.128,-0.063
5.130,-0.064
5.132,-0.065
5.134,-0.064
5.136,-0.061
5.138,-0.059
5.140,-0.056
5.142,-0.055
5.144,-0.054
5.146,-0.053
5.148,-0.053
5.150,-0.053
5.152,-0.053
5.154,-0.053
5.156,-0.054
5.158,-0.055
5.160,-0.056
5.162,-0.056
5.164,-0.055
5.166,-0.055
5.168,-0.054
5.170,-0.053
5.172,-0.053
5.174,-0.053
5.176,-0.053
5.178,-0.053
5.180,-0.054
5.182,-0.056
5.184,-0.058
5.186,-0.060
5.188,-0.062
5.190,-0.062
5.192,-0.062
5.194,-0.060
5.196,-0.057
5.198,-0.053
5.200,-0.051
5.202,-0.050
5.204,-0.052
5.206,-0.056
5.208,-0.061
5.210,-0.064
5.212,-0.065
5.214,-0.063
5.216,-0.058
5.218,-0.052
5.220,-0.048
5.222,-0.044
5.224,-0.044
5.226,-0.045
5.228,-0.047
5.230,-0.048
5.232,-0.049
5.234,-0.048
5.236,-0.047
5.238,-0.046
5.240,-0.045
5.242,-0.046
5.244,-0.049
5.246,-0.052
5.248,-0.057
5.250,-0.061
5.252,-0.065
5.254,-0.069
5.256,-0.071
5.258,-0.071
5.260,-0.068
5.262,-0.062
5.264,-0.054
5.266,-0.044
5.268,-0.036
5.270,-0.029
5.272,-0.026
5.274,-0.024
5.276,-0.024
5.278,-0.024
5.280,-0.023
5.282,-0.020
5.284,-0.014
5.286,-0.008
5.288,-0.002
5.290,0.001
5.292,-0.001
5.294,-0.006
5.296,-0.012
5.298,-0.017
5.300,-0.017
5.302,-0.012
5.304,-0.002
5.306,0.011
5.308,0.022
5.310,0.030
5.312,0.034
5.314,0.034
5.316,0.029
5.318,0.021
5.320,0.009
5.322,-0.007
5.324,-0.023
5.326,-0.039
5.328,-0.052
5.330,-0.060
5.332,-0.064
5.334,-0.066
5.336,-0.066
5.338,-0.067
5.340,-0.067
5.342,-0.066
5.344,-0.064
5.346,-0.061
5.348,-0.057
5.350,-0.054
5.352,-0.054
5.354,-0.058
5.356,-0.063
5.358,-0.069
5.360,-0.072
5.362,-0.073
5.364,-0.070
5.366,-0.065
5.368,-0.061
5.370,-0.060
5.372,-0.061
5.374,-0.065
5.376,-0.069
5.378,-0.073
5.380,-0.075
5.382,-0.077
5.384,-0.078
5.386,-0.078
5.388,-0.074
5.390,-0.064
5.392,-0.048
5.394,-0.025
5.396,0.001
5.398,0.028
5.400,0.051
5.402,0.068
5.404,0.078
5.406,0.086
5.408,0.096
5.410,0.114
5.412,0.142
5.414,0.178
5.416,0.218
5.418,0.252
5.420,0.274
5.422,0.277
5.424,0.259
5.426,0.224
5.428,0.174
5.430,0.117
5.432,0.057
5.434,-0.001
5.436,-0.051
5.438,-0.090
5.440,-0.114
5.442,-0.122
5.444,-0.116
5.446,-0.098
5.448,-0.075
5.450,-0.053
5.452,-0.036
5.454,-0.027
5.456,-0.026
5.458,-0.031
5.460,-0.039
5.462,-0.046
5.464,-0.052
5.466,-0.054
5.468,-0.053
5.470,-0.050
5.472,-0.047
5.474,-0.045
5.476,-0.045
5.478,-0.046
5.480,-0.049
5.482,-0.051
5.484,-0.051
5.486,-0.050
5.488,-0.048
5.490,-0.045
5.492,-0.043
5.494,-0.042
5.496,-0.043
5.498,-0.044
5.500,-0.045
5.502,-0.045
5.504,-0.043
5.506,-0.040
5.508,-0.037
5.510,-0.033
5.512,-0.031
5.514,-0.027
5.516,-0.024
5.518,-0.021
5.520,-0.018
5.522,-0.016
5.524,-0.017
5.526,-0.018
5.528,-0.020
5.530,-0.022
5.532,-0.023
5.534,-0.023
5.536,-0.023
5.538,-0.022
5.540,-0.020
5.542,-0.019
5.544,-0.017
5.546,-0.015
5.548,-0.013
5.550,-0.011
5.552,-0.009
5.554,-0.006
5.556,-0.003
5.558,-0.001
5.560,0.002
5.562,0.003
5.564,0.004
5.566,0.004
5.568,0.004
5.570,0.004
5.572,0.005
5.574,0.006
5.576,0.008
5.578,0.010
5.580,0.013
5.582,0.017
5.584,0.022
5.586,0.028
5.588,0.035
5.590,0.041
5.592,0.047
5.594,0.051
5.596,0.053
5.598,0.054
5.600,0.055
5.602,0.057
5.604,0.059
5.606,0.063
5.608,0.068
5.610,0.073
5.612,0.079
5.614,0.084
5.616,0.090
5.618,0.097
5.620,0.104
5.622,0.112
5.624,0.118
5.626,0.123
5.628,0.125
5.630,0.126
5.632,0.126
5.634,0.128
5.636,0.133
5.638,0.142
5.640,0.152
5.642,0.163
5.644,0.171
5.646,0.175
5.648,0.177
5.650,0.177
5.652,0.176
5.654,0.175
5.656,0.174
5.658,0.173
5.660,0.171
5.662,0.167
5.664,0.162
5.666,0.156
5.668,0.151
5.670,0.146
5.672,0.140
5.674,0.134
5.676,0.127
5.678,0.119
5.680,0.111
5.682,0.102
5.684,0.094
5.686,0.087
5.688,0.081
5.690,0.075
5.692,0.068
5.694,0.060
5.696,0.050
5.698,0.038
5.700,0.026
5.702,0.014
5.704,0.005
5.706,-0.002
5.708,-0.007
5.710,-0.011
5.712,-0.014
5.714,-0.018
5.716,-0.022
5.718,-0.026
5.720,-0.029
5.722,-0.032
5.724,-0.035
5.726,-0.039
5.728,-0.042
5.730,-0.045
5.732,-0.047
5.734,-0.048
5.736,-0.048
5.738,-0.049
5.740,-0.050
5.742,-0.051
5.744,-0.052
5.746,-0.052
5.748,-0.049
5.750,-0.046
5.752,-0.043
5.754,-0.041
5.756,-0.042
5.758,-0.045
5.760,-0.048
5.762,-0.051
5.764,-0.052
5.766,-0.053
5.768,-0.052
5.770,-0.052
5.772,-0.052
5.774,-0.052
5.776,-0.051
5.778,-0.050
5.780,-0.048
5.782,-0.045
5.784,-0.043
5.786,-0.040
5.788,-0.039
5.790,-0.040
5.792,-0.041
5.794,-0.041
5.796,-0.041
5.798,-0.039
5.800,-0.036
5.802,-0.034
5.804,-0.033
5.806,-0.034
5.808,-0.036
5.810,-0.040
5.812,-0.043
5.814,-0.045
5.816,-0.045
5.818,-0.043
5.820,-0.040
5.822,-0.036
5.824,-0.032
5.826,-0.030
5.828,-0.029
5.830,-0.029
5.832,-0.029
5.834,-0.030
5.836,-0.030
5.838,-0.030
5.840,-0.029
5.842,-0.027
5.844,-0.026
5.846,-0.025
5.848,-0.025
5.850,-0.026
5.852,-0.028
5.854,-0.030
5.856,-0.033
5.858,-0.035
5.860,-0.037
5.862,-0.038
5.864,-0.037
5.866,-0.037
5.868,-0.036
5.870,-0.035
5.872,-0.035
5.874,-0.035
5.876,-0.035
5.878,-0.035
5.880,-0.036
5.882,-0.037
5.884,-0.038
5.886,-0.039
5.888,-0.037
5.890,-0.032
5.892,-0.025
5.894,-0.016
5.896,-0.007
5.898,-0.000
5.900,0.002
5.902,0.002
5.904,-0.000
5.906,-0.002
5.908,-0.001
5.910,0.003
5.912,0.010
5.914,0.016
5.916,0.020
5.918,0.021
5.920,0.018
5.922,0.013
5.924,0.007
5.926,0.001
5.928,-0.005
5.930,-0.009
5.932,-0.012
5.934,-0.011
5.936,-0.006
5.938,0.003
5.940,0.016
5.942,0.032
5.944,0.047
5.946,0.059
5.948,0.065
5.950,0.064
5.952,0.057
5.954,0.044
5.956,0.028
5.958,0.012
5.960,-0.002
5.962,-0.012
5.964,-0.020
5.966,-0.025
5.968,-0.027
5.970,-0.029
5.972,-0.031
5.974,-0.031
5.976,-0.032
5.978,-0.031
5.980,-0.030
5.982,-0.029
5.984,-0.030
5.986,-0.033
5.988,-0.037
5.990,-0.043
5.992,-0.049
5.994,-0.053
5.996,-0.054
5.998,-0.051
6.000,-0.045
6.002,-0.038
6.004,-0.030
6.006,-0.025
6.008,-0.023
6.010,-0.026
6.012,-0.033
6.014,-0.043
6.016,-0.051
6.018,-0.058
6.020,-0.060
6.022,-0.057
6.024,-0.049
6.026,-0.036
6.028,-0.019
6.030,0.001
6.032,0.024
6.034,0.045
6.036,0.062
6.038,0.073
6.040,0.077
6.042,0.079
6.044,0.083
6.046,0.097
6.048,0.123
6.050,0.161
6.052,0.205
6.054,0.245
6.056,0.271
6.058,0.277
6.060,0.258
6.062,0.220
6.064,0.169
6.066,0.111
6.068,0.054
6.070,0.001
6.072,-0.043
6.074,-0.078
6.076,-0.100
6.078,-0.107
6.080,-0.101
6.082,-0.084
6.084,-0.063
6.086,-0.044
6.088,-0.032
6.090,-0.029
6.092,-0.033
6.094,-0.040
6.096,-0.045
6.098,-0.046
6.100,-0.043
6.102,-0.036
6.104,-0.029
6.106,-0.024
6.108,-0.022
6.110,-0.024
6.112,-0.028
6.114,-0.033
6.116,-0.037
6.118,-0.039
6.120,-0.039
6.122,-0.036
6.124,-0.033
6.126,-0.029
6.128,-0.025
6.130,-0.022
6.132,-0.019
6.134,-0.018
6.136,-0.017
6.138,-0.017
6.140,-0.017
6.142,-0.017
6.144,-0.016
6.146,-0.015
6.148,-0.015
6.150,-0.015
6.152,-0.015
6.154,-0.017
6.156,-0.019
6.158,-0.020
6.160,-0.020
6.162,-0.019
6.164,-0.016
6.166,-0.014
6.168,-0.011
6.170,-0.009
6.172,-0.007
6.174,-0.005
6.176,-0.003
6.178,-0.001
6.180,0.001
6.182,0.001
6.184,-0.000
6.186,-0.003
6.188,-0.004
6.190,-0.005
6.192,-0.004
6.194,-0.001
6.196,0.003
6.198,0.005
6.200,0.005
6.202,0.004
6.204,0.002
6.206,-0.000
6.208,0.000
6.210,0.003
6.212,0.009
6.214,0.017
6.216,0.024
6.218,0.030
6.220,0.033
6.222,0.033
6.224,0.032
6.226,0.031
6.228,0.032
6.230,0.035
6.232,0.041
6.234,0.047
6.236,0.055
6.238,0.062
6.240,0.070
6.242,0.077
6.244,0.084
6.246,0.088
6.248,0.090
6.250,0.089
6.252,0.087
6.254,0.086
6.256,0.085
6.258,0.088
6.260,0.094
6.262,0.103
6.264,0.114
6.266,0.125
6.268,0.135
6.270,0.144
6.272,0.151
6.274,0.156
6.276,0.158
6.278,0.159
6.280,0.159
6.282,0.160
6.284,0.162
6.286,0.166
6.288,0.170
6.290,0.174
6.292,0.177
6.294,0.177
6.296,0.175
6.298,0.171
6.300,0.167
6.302,0.162
6.304,0.158
6.306,0.154
6.308,0.148
6.310,0.139
6.312,0.129
6.314,0.116
6.316,0.102
6.318,0.089
6.320,0.078
6.322,0.068
6.324,0.059
6.326,0.052
6.328,0.044
6.330,0.037
6.332,0.028
6.334,0.020
6.336,0.012
6.338,0.005
6.340,-0.001
6.342,-0.005
6.344,-0.009
6.346,-0.013
6.348,-0.019
6.350,-0.024
6.352,-0.029
6.354,-0.034
6.356,-0.038
6.358,-0.041
6.360,-0.045
6.362,-0.050
6.364,-0.054
6.366,-0.058
6.368,-0.060
6.370,-0.061
6.372,-0.060
6.374,-0.058
6.376,-0.056
6.378,-0.054
6.380,-0.053
6.382,-0.054
6.384,-0.055
6.386,-0.058
6.388,-0.061
6.390,-0.065
6.392,-0.069
6.394,-0.071
6.396,-0.073
6.398,-0.074
6.400,-0.075
6.402,-0.077
6.404,-0.078
6.406,-0.079
6.408,-0.079
6.410,-0.077
6.412,-0.075
6.414,-0.071
6.416,-0.069
6.418,-0.067
6.420,-0.069
6.422,-0.072
6.424,-0.077
6.426,-0.082
6.428,-0.085
6.430,-0.085
6.432,-0.081
6.434,-0.074
6.436,-0.066
6.438,-0.058
6.440,-0.053
6.442,-0.050
6.444,-0.048
6.446,-0.048
6.448,-0.049
6.450,-0.049
6.452,-0.049
6.454,-0.049
6.456,-0.048
6.458,-0.046
6.460,-0.043
6.462,-0.037
6.464,-0.031
6.466,-0.026
6.468,-0.022
6.470,-0.022
6.472,-0.026
6.474,-0.031
6.476,-0.037
6.478,-0.042
6.480,-0.045
6.482,-0.045
6.484,-0.044
6.486,-0.042
6.488,-0.041
6.490,-0.042
6.492,-0.044
6.494,-0.047
6.496,-0.049
6.498,-0.050
6.500,-0.050
6.502,-0.050
6.504,-0.050
6.506,-0.051
6.508,-0.052
6.510,-0.053
6.512,-0.054
6.514,-0.054
6.516,-0.054
6.518,-0.053
6.520,-0.053
6.522,-0.053
6.524,-0.053
6.526,-0.053
6.528,-0.053
6.530,-0.053
6.532,-0.053
6.534,-0.054
6.536,-0.057
6.538,-0.061
6.540,-0.065
6.542,-0.069
6.544,-0.070
6.546,-0.070
6.548,-0.068
6.550,-0.065
6.552,-0.063
6.554,-0.062
6.556,-0.061
6.558,-0.061
6.560,-0.061
6.562,-0.059
6.564,-0.056
6.566,-0.052
6.568,-0.048
6.570,-0.044
6.572,-0.042
6.574,-0.040
6.576,-0.040
6.578,-0.042
6.580,-0.044
6.582,-0.048
6.584,-0.052
6.586,-0.056
6.588,-0.059
6.590,-0.061
6.592,-0.060
6.594,-0.058
6.596,-0.055
6.598,-0.051
6.600,-0.048
6.602,-0.046
6.604,-0.044
6.606,-0.043
6.608,-0.042
6.610,-0.040
6.612,-0.036
6.614,-0.032
6.616,-0.028
6.618,-0.024
6.620,-0.022
6.622,-0.020
6.624,-0.020
6.626,-0.021
6.628,-0.023
6.630,-0.026
6.632,-0.028
6.634,-0.027
6.636,-0.023
6.638,-0.016
6.640,-0.006
6.642,0.004
6.644,0.014
6.646,0.021
6.648,0.025
6.650,0.025
6.652,0.022
6.654,0.015
6.656,0.005
6.658,-0.007
6.660,-0.019
6.662,-0.031
6.664,-0.039
6.666,-0.045
6.668,-0.049
6.670,-0.052
6.672,-0.055
6.674,-0.058
6.676,-0.060
6.678,-0.059
6.680,-0.055
6.682,-0.048
6.684,-0.041
6.686,-0.037
6.688,-0.037
6.690,-0.044
6.692,-0.054
6.694,-0.065
6.696,-0.072
6.698,-0.074
6.700,-0.070
6.702,-0.064
6.704,-0.058
6.706,-0.057
6.708,-0.058
6.710,-0.063
6.712,-0.068
6.714,-0.070
6.716,-0.071
6.718,-0.069
6.720,-0.068
6.722,-0.065
6.724,-0.061
6.726,-0.053
6.728,-0.038
6.730,-0.016
6.732,0.012
6.734,0.041
6.736,0.066
6.738,0.085
6.740,0.098
6.742,0.108
6.744,0.122
6.746,0.146
6.748,0.183
6.750,0.232
6.752,0.284
6.754,0.331
6.756,0.362
6.758,0.370
6.760,0.354
6.762,0.315
6.764,0.259
6.766,0.194
6.768,0.124
6.770,0.057
6.772,-0.002
6.774,-0.050
6.776,-0.082
6.778,-0.097
6.780,-0.096
6.782,-0.084
6.784,-0.066
6.786,-0.048
6.788,-0.033
6.790,-0.024
6.792,-0.021
6.794,-0.023
6.796,-0.027
6.798,-0.032
6.800,-0.037
6.802,-0.039
6.804,-0.038
6.806,-0.035
6.808,-0.032
6.810,-0.030
6.812,-0.030
6.814,-0.033
6.816,-0.037
6.818,-0.041
6.820,-0.041
6.822,-0.037
6.824,-0.030
6.826,-0.024
6.828,-0.022
6.830,-0.025
6.832,-0.033
6.834,-0.043
6.836,-0.052
6.838,-0.057
6.840,-0.056
6.842,-0.050
6.844,-0.043
6.846,-0.035
6.848,-0.027
6.850,-0.021
6.852,-0.017
6.854,-0.014
6.856,-0.014
6.858,-0.016
6.860,-0.020
6.862,-0.024
6.864,-0.028
6.866,-0.030
6.868,-0.031
6.870,-0.029
6.872,-0.027
6.874,-0.025
6.876,-0.023
6.878,-0.022
6.880,-0.020
6.882,-0.018
6.884,-0.014
6.886,-0.009
6.888,-0.003
6.890,0.003
6.892,0.008
6.894,0.012
6.896,0.014
6.898,0.015
6.900,0.013
6.902,0.010
6.904,0.006
6.906,0.001
6.908,-0.003
6.910,-0.003
6.912,-0.000
6.914,0.007
6.916,0.018
6.918,0.028
6.920,0.037
6.922,0.041
6.924,0.042
6.926,0.040
6.928,0.036
6.930,0.035
6.932,0.035
6.934,0.038
6.936,0.042
6.938,0.047
6.940,0.052
6.942,0.056
6.944,0.060
6.946,0.064
6.948,0.069
6.950,0.074
6.952,0.080
6.954,0.087
6.956,0.094
6.958,0.102
6.960,0.109
6.962,0.115
6.964,0.121
6.966,0.125
6.968,0.129
6.970,0.133
6.972,0.137
6.974,0.140
6.976,0.144
6.978,0.148
6.980,0.154
6.982,0.161
6.984,0.169
6.986,0.176
6.988,0.183
6.990,0.187
6.992,0.188
6.994,0.188
6.996,0.186
6.998,0.183
7.000,0.182
7.002,0.181
7.004,0.180
7.006,0.179
7.008,0.176
7.010,0.172
7.012,0.167
7.014,0.160
7.016,0.151
7.018,0.141
7.020,0.131
7.022,0.119
7.024,0.106
7.026,0.094
7.028,0.082
7.030,0.070
7.032,0.059
7.034,0.048
7.036,0.037
7.038,0.027
7.040,0.018
7.042,0.010
7.044,0.003
7.046,-0.002
7.048,-0.007
7.050,-0.011
7.052,-0.014
7.054,-0.017
7.056,-0.020
7.058,-0.022
7.060,-0.024
7.062,-0.027
7.064,-0.029
7.066,-0.031
7.068,-0.033
7.070,-0.036
7.072,-0.039
7.074,-0.043
7.076,-0.046
7.078,-0.048
7.080,-0.048
7.082,-0.047
7.084,-0.046
7.086,-0.044
7.088,-0.044
7.090,-0.044
7.092,-0.044
7.094,-0.044
7.096,-0.043
7.098,-0.042
7.100,-0.041
7.102,-0.040
7.104,-0.040
7.106,-0.040
7.108,-0.040
7.110,-0.040
7.112,-0.040
7.114,-0.041
7.116,-0.041
7.118,-0.042
7.120,-0.044
7.122,-0.045
7.124,-0.046
7.126,-0.048
7.128,-0.050
7.130,-0.053
7.132,-0.055
7.134,-0.055
7.136,-0.055
7.138,-0.053
7.140,-0.050
7.142,-0.047
7.144,-0.046
7.146,-0.044
7.148,-0.044
7.150,-0.042
7.152,-0.039
7.154,-0.036
7.156,-0.033
7.158,-0.032
7.160,-0.034
7.162,-0.038
7.164,-0.044
7.166,-0.049
7.168,-0.052
7.170,-0.051
7.172,-0.049
7.174,-0.045
7.176,-0.043
7.178,-0.042
7.180,-0.042
7.182,-0.043
7.184,-0.044
7.186,-0.043
7.188,-0.041
7.190,-0.040
7.192,-0.038
7.194,-0.037
7.196,-0.036
7.198,-0.035
7.200,-0.033
7.202,-0.031
7.204,-0.029
7.206,-0.028
7.208,-0.027
7.210,-0.028
7.212,-0.031
7.214,-0.035
7.216,-0.039
7.218,-0.043
7.220,-0.045
7.222,-0.045
7.224,-0.042
7.226,-0.038
7.228,-0.034
7.230,-0.030
7.232,-0.028
7.234,-0.029
7.236,-0.031
7.238,-0.034
7.240,-0.037
7.242,-0.040
7.244,-0.042
7.246,-0.043
7.248,-0.043
7.250,-0.042
7.252,-0.042
7.254,-0.040
7.256,-0.038
7.258,-0.035
7.260,-0.032
7.262,-0.029
7.264,-0.029
7.266,-0.031
7.268,-0.035
7.270,-0.040
7.272,-0.043
7.274,-0.044
7.276,-0.043
7.278,-0.040
7.280,-0.036
7.282,-0.034
7.284,-0.034
7.286,-0.035
7.288,-0.037
7.290,-0.039
7.292,-0.041
7.294,-0.043
7.296,-0.045
7.298,-0.048
7.300,-0.048
7.302,-0.047
7.304,-0.045
7.306,-0.040
7.308,-0.036
7.310,-0.034
7.312,-0.033
7.314,-0.034
7.316,-0.036
7.318,-0.039
7.320,-0.042
7.322,-0.044
7.324,-0.047
7.326,-0.050
7.328,-0.051
7.330,-0.052
7.332,-0.052
7.334,-0.050
7.336,-0.047
7.338,-0.043
7.340,-0.040
7.342,-0.037
7.344,-0.035
7.346,-0.032
7.348,-0.031
7.350,-0.028
7.352,-0.026
7.354,-0.022
7.356,-0.016
7.358,-0.011
7.360,-0.006
7.362,-0.002
7.364,0.001
7.366,0.001
7.368,-0.001
7.370,-0.004
7.372,-0.008
7.374,-0.012
7.376,-0.014
7.378,-0.014
7.380,-0.011
7.382,-0.005
7.384,0.004
7.386,0.016
7.388,0.030
7.390,0.045
7.392,0.056
7.394,0.063
7.396,0.064
7.398,0.058
7.400,0.047
7.402,0.033
7.404,0.018
7.406,0.004
7.408,-0.009
7.410,-0.020
7.412,-0.030
7.414,-0.038
7.416,-0.043
7.418,-0.046
7.420,-0.045
7.422,-0.042
7.424,-0.038
7.426,-0.035
7.428,-0.032
7.430,-0.031
7.432,-0.032
7.434,-0.035
7.436,-0.039
7.438,-0.044
7.440,-0.047
7.442,-0.048
7.444,-0.046
7.446,-0.043
7.448,-0.039
7.450,-0.037
7.452,-0.039
7.454,-0.043
7.456,-0.049
7.458,-0.054
7.460,-0.057
7.462,-0.058
7.464,-0.057
7.466,-0.054
7.468,-0.048
7.470,-0.040
7.472,-0.027
7.474,-0.010
7.476,0.012
7.478,0.035
7.480,0.057
7.482,0.076
7.484,0.092
7.486,0.106
7.488,0.122
7.490,0.145
7.492,0.178
7.494,0.221
7.496,0.269
7.498,0.313
7.500,0.345
7.502,0.358
7.504,0.348
7.506,0.319
7.508,0.274
7.510,0.219
7.512,0.159
7.514,0.098
7.516,0.039
7.518,-0.014
7.520,-0.056
7.522,-0.084
7.524,-0.095
7.526,-0.091
7.528,-0.076
7.530,-0.058
7.532,-0.042
7.534,-0.032
7.536,-0.029
7.538,-0.030
7.540,-0.033
7.542,-0.036
7.544,-0.037
7.546,-0.036
7.548,-0.034
7.550,-0.033
7.552,-0.033
7.554,-0.037
7.556,-0.042
7.558,-0.049
7.560,-0.056
7.562,-0.059
7.564,-0.059
7.566,-0.055
7.568,-0.050
7.570,-0.045
7.572,-0.041
7.574,-0.038
7.576,-0.037
7.578,-0.035
7.580,-0.031
7.582,-0.028
7.584,-0.025
7.586,-0.025
7.588,-0.028
7.590,-0.033
7.592,-0.039
7.594,-0.044
7.596,-0.046
7.598,-0.045
7.600,-0.041
7.602,-0.037
7.604,-0.034
7.606,-0.032
7.608,-0.033
7.610,-0.034
7.612,-0.034
7.614,-0.034
7.616,-0.031
7.618,-0.027
7.620,-0.023
7.622,-0.019
7.624,-0.017
7.626,-0.015
7.628,-0.014
7.630,-0.012
7.632,-0.007
7.634,-0.001
7.636,0.005
7.638,0.008
7.640,0.008
7.642,0.005
7.644,0.001
7.646,-0.002
7.648,-0.002
7.650,0.001
7.652,0.005
7.654,0.010
7.656,0.012
7.658,0.013
7.660,0.012
7.662,0.011
7.664,0.012
7.666,0.013
7.668,0.016
7.670,0.019
7.672,0.022
7.674,0.024
7.676,0.024
7.678,0.024
7.680,0.024
7.682,0.026
7.684,0.029
7.686,0.033
7.688,0.039
7.690,0.046
7.692,0.053
7.694,0.060
7.696,0.066
7.698,0.070
7.700,0.075
7.702,0.079
7.704,0.084
7.706,0.090
7.708,0.096
7.710,0.102
7.712,0.108
7.714,0.113
7.716,0.119
7.718,0.126
7.720,0.134
7.722,0.142
7.724,0.150
7.726,0.157
7.728,0.162
7.730,0.165
7.732,0.165
7.734,0.164
7.736,0.163
7.738,0.164
7.740,0.166
7.742,0.170
7.744,0.175
7.746,0.178
7.748,0.179
7.750,0.177
7.752,0.171
7.754,0.165
7.756,0.159
7.758,0.155
7.760,0.151
7.762,0.146
7.764,0.137
7.766,0.124
7.768,0.108
7.770,0.093
7.772,0.079
7.774,0.069
7.776,0.060
7.778,0.051
7.780,0.041
7.782,0.029
7.784,0.016
7.786,0.004
7.788,-0.005
7.790,-0.012
7.792,-0.016
7.794,-0.018
7.796,-0.021
7.798,-0.025
7.800,-0.030
7.802,-0.036
7.804,-0.041
7.806,-0.044
7.808,-0.046
7.810,-0.046
7.812,-0.047
7.814,-0.048
7.816,-0.050
7.818,-0.053
7.820,-0.057
7.822,-0.061
7.824,-0.063
7.826,-0.064
7.828,-0.064
7.830,-0.064
7.832,-0.063
7.834,-0.061
7.836,-0.060
7.838,-0.059
7.840,-0.059
7.842,-0.060
7.844,-0.062
7.846,-0.065
7.848,-0.067
7.850,-0.068
7.852,-0.069
7.854,-0.069
7.856,-0.069
7.858,-0.071
7.860,-0.072
7.862,-0.073
7.864,-0.073
7.866,-0.071
7.868,-0.070
7.870,-0.068
7.872,-0.068
7.874,-0.068
7.876,-0.068
7.878,-0.067
7.880,-0.064
7.882,-0.061
7.884,-0.058
7.886,-0.057
7.888,-0.058
7.890,-0.062
7.892,-0.067
7.894,-0.072
7.896,-0.074
7.898,-0.074
7.900,-0.072
7.902,-0.069
7.904,-0.066
7.906,-0.063
7.908,-0.061
7.910,-0.060
7.912,-0.060
7.914,-0.061
7.916,-0.062
7.918,-0.064
7.920,-0.065
7.922,-0.066
7.924,-0.067
7.926,-0.066
7.928,-0.064
7.930,-0.061
7.932,-0.059
7.934,-0.057
7.936,-0.057
7.938,-0.059
7.940,-0.061
7.942,-0.062
7.944,-0.063
7.946,-0.061
7.948,-0.059
7.950,-0.056
7.952,-0.055
7.954,-0.055
7.956,-0.057
7.958,-0.060
7.960,-0.065
7.962,-0.069
7.964,-0.072
7.966,-0.073
7.968,-0.072
7.970,-0.069
7.972,-0.063
7.974,-0.056
7.976,-0.048
7.978,-0.042
7.980,-0.038
7.982,-0.038
7.984,-0.041
7.986,-0.046
7.988,-0.052
7.990,-0.057
7.992,-0.060
7.994,-0.062
7.996,-0.063
7.998,-0.063
8.000,-0.063
8.002,-0.061
8.004,-0.058
8.006,-0.054
8.008,-0.050
8.010,-0.045
8.012,-0.042
8.014,-0.041
8.016,-0.041
8.018,-0.042
8.020,-0.043
8.022,-0.045
8.024,-0.047
8.026,-0.049
8.028,-0.051
8.030,-0.054
8.032,-0.058
8.034,-0.061
8.036,-0.063
8.038,-0.066
8.040,-0.067
8.042,-0.068
8.044,-0.068
8.046,-0.068
8.048,-0.067
8.050,-0.067
8.052,-0.066
8.054,-0.064
8.056,-0.061
8.058,-0.057
8.060,-0.054
8.062,-0.051
8.064,-0.051
8.066,-0.052
8.068,-0.054
8.070,-0.057
8.072,-0.058
8.074,-0.058
8.076,-0.055
8.078,-0.048
8.080,-0.038
8.082,-0.025
8.084,-0.013
8.086,-0.003
8.088,0.002
8.090,0.003
8.092,-0.000
8.094,-0.005
8.096,-0.010
8.098,-0.013
8.100,-0.015
8.102,-0.016
8.104,-0.018
8.106,-0.019
8.108,-0.019
8.110,-0.015
8.112,-0.008
8.114,0.004
8.116,0.018
8.118,0.034
8.120,0.048
8.122,0.060
8.124,0.066
8.126,0.067
8.128,0.062
8.130,0.052
8.132,0.039
8.134,0.025
8.136,0.012
8.138,-0.001
8.140,-0.013
8.142,-0.024
8.144,-0.035
8.146,-0.046
8.148,-0.055
8.150,-0.064
8.152,-0.070
8.154,-0.073
8.156,-0.073
8.158,-0.070
8.160,-0.066
8.162,-0.062
8.164,-0.058
8.166,-0.055
8.168,-0.054
8.170,-0.055
8.172,-0.058
8.174,-0.062
8.176,-0.065
8.178,-0.067
8.180,-0.067
8.182,-0.065
8.184,-0.061
8.186,-0.056
8.188,-0.051
8.190,-0.046
8.192,-0.044
8.194,-0.043
8.196,-0.046
8.198,-0.050
8.200,-0.053
8.202,-0.052
8.204,-0.046
8.206,-0.033
8.208,-0.013
8.210,0.011
8.212,0.036
8.214,0.056
8.216,0.070
8.218,0.078
8.220,0.084
8.222,0.093
8.224,0.112
8.226,0.142
8.228,0.184
8.230,0.231
8.232,0.272
8.234,0.299
8.236,0.305
8.238,0.288
8.240,0.253
8.242,0.203
8.244,0.146
8.246,0.086
8.248,0.026
8.250,-0.029
8.252,-0.074
8.254,-0.104
8.256,-0.116
8.258,-0.112
8.260,-0.096
8.262,-0.076
8.264,-0.058
8.266,-0.047
8.268,-0.043
8.270,-0.046
8.272,-0.050
8.274,-0.054
8.276,-0.055
8.278,-0.053
8.280,-0.050
8.282,-0.045
8.284,-0.040
8.286,-0.036
8.288,-0.033
8.290,-0.033
8.292,-0.034
8.294,-0.037
8.296,-0.041
8.298,-0.044
8.300,-0.046
8.302,-0.047
8.304,-0.046
8.306,-0.046
8.308,-0.046
8.310,-0.046
8.312,-0.045
8.314,-0.042
8.316,-0.036
8.318,-0.029
8.320,-0.021
8.322,-0.015
8.324,-0.011
8.326,-0.011
8.328,-0.014
8.330,-0.017
8.332,-0.019
8.334,-0.020
8.336,-0.021
8.338,-0.022
8.340,-0.023
8.342,-0.025
8.344,-0.027
8.346,-0.028
8.348,-0.027
8.350,-0.026
8.352,-0.025
8.354,-0.025
8.356,-0.025
8.358,-0.026
8.360,-0.026
8.362,-0.024
8.364,-0.021
8.366,-0.015
8.368,-0.009
8.370,-0.004
8.372,-0.000
8.374,0.001
8.376,0.001
8.378,-0.001
8.380,-0.004
8.382,-0.006
8.384,-0.007
8.386,-0.007
8.388,-0.004
8.390,0.000
8.392,0.005
8.394,0.009
8.396,0.014
8.398,0.018
8.400,0.022
8.402,0.026
8.404,0.030
8.406,0.032
8.408,0.034
8.410,0.034
8.412,0.035
8.414,0.038
8.416,0.042
8.418,0.047
8.420,0.053
8.422,0.059
8.424,0.063
8.426,0.067
8.428,0.071
8.430,0.076
8.432,0.083
8.434,0.092
8.436,0.100
8.438,0.106
8.440,0.109
8.442,0.109
8.444,0.108
8.446,0.107
8.448,0.108
8.450,0.112
8.452,0.118
8.454,0.127
8.456,0.136
8.458,0.146
8.460,0.156
8.462,0.165
8.464,0.173
8.466,0.178
8.468,0.180
8.470,0.180
8.472,0.178
8.474,0.174
8.476,0.172
8.478,0.171
8.480,0.172
8.482,0.174
8.484,0.177
8.486,0.177
8.488,0.174
8.490,0.167
8.492,0.155
8.494,0.141
8.496,0.125
8.498,0.110
8.500,0.096
8.502,0.084
8.504,0.073
8.506,0.064
8.508,0.056
8.510,0.050
8.512,0.047
8.514,0.044
8.516,0.041
8.518,0.036
8.520,0.029
8.522,0.020
8.524,0.010
8.526,0.001
8.528,-0.007
8.530,-0.012
8.532,-0.016
8.534,-0.018
8.536,-0.019
8.538,-0.020
8.540,-0.021
8.542,-0.024
8.544,-0.028
8.546,-0.033
8.548,-0.039
8.550,-0.045
8.552,-0.049
8.554,-0.052
8.556,-0.052
8.558,-0.052
8.560,-0.051
8.562,-0.049
8.564,-0.045
8.566,-0.042
8.568,-0.038
8.570,-0.037
8.572,-0.038
8.574,-0.041
8.576,-0.048
8.578,-0.055
8.580,-0.061
8.582,-0.065
8.584,-0.065
8.586,-0.063
8.588,-0.058
8.590,-0.053
8.592,-0.049
8.594,-0.045
8.596,-0.044
8.598,-0.043
8.600,-0.042
8.602,-0.041
8.604,-0.038
8.606,-0.036
8.608,-0.034
8.610,-0.034
8.612,-0.036
8.614,-0.040
8.616,-0.043
8.618,-0.046
8.620,-0.047
8.622,-0.046
8.624,-0.044
8.626,-0.042
8.628,-0.040
8.630,-0.039
8.632,-0.039
8.634,-0.039
8.636,-0.038
8.638,-0.036
8.640,-0.033
8.642,-0.031
8.644,-0.029
8.646,-0.028
8.648,-0.028
8.650,-0.028
8.652,-0.027
8.654,-0.024
8.656,-0.019
8.658,-0.015
8.660,-0.013
8.662,-0.015
8.664,-0.019
8.666,-0.026
8.668,-0.032
8.670,-0.036
8.672,-0.037
8.674,-0.035
8.676,-0.031
8.678,-0.027
8.680,-0.025
8.682,-0.024
8.684,-0.025
8.686,-0.025
8.688,-0.024
8.690,-0.022
8.692,-0.020
8.694,-0.017
8.696,-0.017
8.698,-0.018
8.700,-0.021
8.702,-0.025
8.704,-0.027
8.706,-0.028
8.708,-0.027
8.710,-0.026
8.712,-0.026
8.714,-0.027
8.716,-0.029
8.718,-0.032
8.720,-0.033
8.722,-0.033
8.724,-0.030
8.726,-0.026
8.728,-0.022
8.730,-0.019
8.732,-0.020
8.734,-0.022
8.736,-0.025
8.738,-0.027
8.740,-0.027
8.742,-0.025
8.744,-0.022
8.746,-0.019
8.748,-0.018
8.750,-0.017
8.752,-0.017
8.754,-0.017
8.756,-0.015
8.758,-0.012
8.760,-0.008
8.762,-0.004
8.764,-0.001
8.766,0.002
8.768,0.003
8.770,0.005
8.772,0.007
8.774,0.011
8.776,0.014
8.778,0.018
8.780,0.022
8.782,0.024
8.784,0.023
8.786,0.021
8.788,0.019
8.790,0.017
8.792,0.018
8.794,0.023
8.796,0.032
8.798,0.044
8.800,0.056
8.802,0.066
8.804,0.073
8.806,0.075
8.808,0.072
8.810,0.066
8.812,0.056
8.814,0.044
8.816,0.032
8.818,0.020
8.820,0.011
8.822,0.005
8.824,-0.000
8.826,-0.005
8.828,-0.011
8.830,-0.018
8.832,-0.027
8.834,-0.036
8.836,-0.042
8.838,-0.045
8.840,-0.045
8.842,-0.042
8.844,-0.038
8.846,-0.034
8.848,-0.029
8.850,-0.024
8.852,-0.021
8.854,-0.019
8.856,-0.019
8.858,-0.022
8.860,-0.026
8.862,-0.030
8.864,-0.033
8.866,-0.035
8.868,-0.036
8.870,-0.037
8.872,-0.038
8.874,-0.040
8.876,-0.041
8.878,-0.042
8.880,-0.041
8.882,-0.037
8.884,-0.028
8.886,-0.015
8.888,0.004
8.890,0.025
8.892,0.047
8.894,0.066
8.896,0.082
8.898,0.093
8.900,0.100
8.902,0.108
8.904,0.120
8.906,0.142
8.908,0.175
8.910,0.218
8.912,0.264
8.914,0.304
8.916,0.328
8.918,0.329
8.920,0.305
8.922,0.261
8.924,0.201
8.926,0.136
8.928,0.071
8.930,0.013
8.932,-0.036
8.934,-0.072
8.936,-0.093
8.938,-0.099
8.940,-0.090
8.942,-0.073
8.944,-0.051
8.946,-0.032
8.948,-0.019
8.950,-0.014
8.952,-0.014
8.954,-0.016
8.956,-0.019
8.958,-0.021
8.960,-0.021
8.962,-0.019
8.964,-0.018
8.966,-0.017
8.968,-0.017
8.970,-0.018
8.972,-0.021
8.974,-0.025
8.976,-0.028
8.978,-0.028
8.980,-0.025
8.982,-0.020
8.984,-0.012
8.986,-0.005
8.988,-0.001
8.990,-0.002
8.992,-0.007
8.994,-0.014
8.996,-0.021
8.998,-0.025
9.000,-0.026
9.002,-0.023
9.004,-0.019
9.006,-0.015
9.008,-0.013
9.010,-0.013
9.012,-0.014
9.014,-0.015
9.016,-0.015
9.018,-0.013
9.020,-0.010
9.022,-0.006
9.024,-0.002
9.026,-0.000
9.028,0.000
9.030,-0.000
9.032,-0.001
9.034,-0.001
9.036,-0.000
9.038,0.001
9.040,0.003
9.042,0.005
9.044,0.006
9.046,0.007
9.048,0.010
9.050,0.013
9.052,0.017
9.054,0.021
9.056,0.024
9.058,0.026
9.060,0.025
9.062,0.021
9.064,0.016
9.066,0.011
9.068,0.007
9.070,0.004
9.072,0.003
9.074,0.004
9.076,0.006
9.078,0.009
9.080,0.013
9.082,0.017
9.084,0.022
9.086,0.026
9.088,0.030
9.090,0.033
9.092,0.037
9.094,0.040
9.096,0.045
9.098,0.050
9.100,0.056
9.102,0.062
9.104,0.069
9.106,0.076
9.108,0.083
9.110,0.088
9.112,0.093
9.114,0.097
9.116,0.100
9.118,0.103
9.120,0.106
9.122,0.110
9.124,0.116
9.126,0.122
9.128,0.130
9.130,0.138
9.132,0.146
9.134,0.153
9.136,0.160
9.138,0.165
9.140,0.170
9.142,0.173
9.144,0.176
9.146,0.178
9.148,0.181
9.150,0.185
9.152,0.191
9.154,0.197
9.156,0.202
9.158,0.203
9.160,0.200
9.162,0.193
9.164,0.183
9.166,0.171
9.168,0.160
9.170,0.149
9.172,0.140
9.174,0.132
9.176,0.124
9.178,0.116
9.180,0.108
9.182,0.100
9.184,0.092
9.186,0.083
9.188,0.071
9.190,0.059
9.192,0.046
9.194,0.034
9.196,0.023
9.198,0.016
9.200,0.010
9.202,0.005
9.204,0.002
9.206,-0.002
9.208,-0.005
9.210,-0.009
9.212,-0.013
9.214,-0.018
9.216,-0.025
9.218,-0.031
9.220,-0.039
9.222,-0.045
9.224,-0.049
9.226,-0.049
9.228,-0.048
9.230,-0.045
9.232,-0.043
9.234,-0.043
9.236,-0.047
9.238,-0.052
9.240,-0.058
9.242,-0.063
9.244,-0.067
9.246,-0.068
9.248,-0.069
9.250,-0.070
9.252,-0.071
9.254,-0.071
9.256,-0.070
9.258,-0.069
9.260,-0.068
9.262,-0.067
9.264,-0.068
9.266,-0.070
9.268,-0.073
9.270,-0.075
9.272,-0.076
9.274,-0.076
9.276,-0.075
9.278,-0.074
9.280,-0.074
9.282,-0.074
9.284,-0.074
9.286,-0.072
9.288,-0.070
9.290,-0.067
9.292,-0.064
9.294,-0.063
9.296,-0.064
9.298,-0.066
9.300,-0.068
9.302,-0.070
9.304,-0.071
9.306,-0.071
9.308,-0.070
9.310,-0.068
9.312,-0.066
9.314,-0.063
9.316,-0.061
9.318,-0.059
9.320,-0.059
9.322,-0.059
9.324,-0.060
9.326,-0.061
9.328,-0.061
9.330,-0.062
9.332,-0.062
9.334,-0.061
9.336,-0.060
9.338,-0.057
9.340,-0.053
9.342,-0.049
9.344,-0.046
9.346,-0.046
9.348,-0.048
9.350,-0.053
9.352,-0.057
9.354,-0.061
9.356,-0.063
9.358,-0.064
9.360,-0.063
9.362,-0.061
9.364,-0.060
9.366,-0.059
9.368,-0.059
9.370,-0.060
9.372,-0.063
9.374,-0.066
9.376,-0.069
9.378,-0.070
9.380,-0.069
9.382,-0.067
9.384,-0.066
9.386,-0.065
9.388,-0.065
9.390,-0.066
9.392,-0.067
9.394,-0.067
9.396,-0.066
9.398,-0.065
9.400,-0.065
9.402,-0.066
9.404,-0.068
9.406,-0.069
9.408,-0.071
9.410,-0.072
9.412,-0.072
9.414,-0.073
9.416,-0.073
9.418,-0.073
9.420,-0.073
9.422,-0.072
9.424,-0.071
9.426,-0.069
9.428,-0.067
9.430,-0.066
9.432,-0.065
9.434,-0.064
9.436,-0.064
9.438,-0.064
9.440,-0.063
9.442,-0.061
9.444,-0.057
9.446,-0.053
9.448,-0.048
9.450,-0.042
9.452,-0.037
9.454,-0.032
9.456,-0.026
9.458,-0.022
9.460,-0.018
9.462,-0.017
9.464,-0.018
9.466,-0.021
9.468,-0.025
9.470,-0.028
9.472,-0.031
9.474,-0.032
9.476,-0.029
9.478,-0.023
9.480,-0.014
9.482,-0.002
9.484,0.011
9.486,0.022
9.488,0.031
9.490,0.036
9.492,0.035
9.494,0.030
9.496,0.020
9.498,0.008
9.500,-0.007
9.502,-0.023
9.504,-0.037
9.506,-0.049
9.508,-0.057
9.510,-0.063
9.512,-0.068
9.514,-0.071
9.516,-0.074
9.518,-0.076
9.520,-0.075
9.522,-0.073
9.524,-0.069
9.526,-0.065
9.528,-0.063
9.530,-0.064
9.532,-0.068
9.534,-0.073
9.536,-0.077
9.538,-0.078
9.540,-0.077
9.542,-0.075
9.544,-0.073
9.546,-0.073
9.548,-0.074
9.550,-0.076
9.552,-0.077
9.554,-0.077
9.556,-0.075
9.558,-0.072
9.560,-0.068
9.562,-0.063
9.564,-0.056
9.566,-0.046
9.568,-0.031
9.570,-0.013
9.572,0.007
9.574,0.028
9.576,0.047
9.578,0.064
9.580,0.077
9.582,0.090
9.584,0.107
9.586,0.133
9.588,0.169
9.590,0.215
9.592,0.266
9.594,0.313
9.596,0.347
9.598,0.360
9.600,0.349
9.602,0.317
9.604,0.268
9.606,0.209
9.608,0.146
9.610,0.083
9.612,0.024
9.614,-0.026
9.616,-0.065
9.618,-0.089
9.620,-0.099
9.622,-0.095
9.624,-0.083
9.626,-0.069
9.628,-0.056
9.630,-0.048
9.632,-0.045
9.634,-0.044
9.636,-0.045
9.638,-0.048
9.640,-0.050
9.642,-0.054
9.644,-0.057
9.646,-0.060
9.648,-0.063
9.650,-0.064
9.652,-0.064
9.654,-0.062
9.656,-0.058
9.658,-0.051
9.660,-0.044
9.662,-0.037
9.664,-0.032
9.666,-0.030
9.668,-0.031
9.670,-0.035
9.672,-0.043
9.674,-0.051
9.676,-0.057
9.678,-0.062
9.680,-0.063
9.682,-0.060
9.684,-0.055
9.686,-0.050
9.688,-0.045
9.690,-0.042
9.692,-0.041
9.694,-0.041
9.696,-0.040
9.698,-0.039
9.700,-0.038
9.702,-0.036
9.704,-0.034
9.706,-0.033
9.708,-0.032
9.710,-0.032
9.712,-0.033
9.714,-0.033
9.716,-0.032
9.718,-0.031
9.720,-0.030
9.722,-0.029
9.724,-0.027
9.726,-0.024
9.728,-0.019
9.730,-0.013
9.732,-0.006
9.734,0.000
9.736,0.004
9.738,0.006
9.740,0.005
9.742,0.003
9.744,0.001
9.746,-0.002
9.748,-0.004
9.750,-0.004
9.752,-0.004
9.754,-0.002
9.756,0.002
9.758,0.008
9.760,0.016
9.762,0.024
9.764,0.031
9.766,0.035
9.768,0.038
9.770,0.038
9.772,0.037
9.774,0.037
9.776,0.037
9.778,0.039
9.780,0.041
9.782,0.044
9.784,0.047
9.786,0.052
9.788,0.057
9.790,0.064
9.792,0.070
9.794,0.075
9.796,0.079
9.798,0.080
9.800,0.081
9.802,0.083
9.804,0.087
9.806,0.094
9.808,0.103
9.810,0.114
9.812,0.123
9.814,0.131
9.816,0.136
9.818,0.139
9.820,0.141
9.822,0.144
9.824,0.148
9.826,0.153
9.828,0.158
9.830,0.163
9.832,0.166
9.834,0.168
9.836,0.168
9.838,0.168
9.840,0.169
9.842,0.171
9.844,0.172
9.846,0.172
9.848,0.170
9.850,0.165
9.852,0.158
9.854,0.150
9.856,0.141
9.858,0.132
9.860,0.122
9.862,0.112
9.864,0.100
9.866,0.087
9.868,0.073
9.870,0.060
9.872,0.048
9.874,0.037
9.876,0.029
9.878,0.021
9.880,0.014
9.882,0.006
9.884,-0.003
9.886,-0.012
9.888,-0.022
9.890,-0.030
9.892,-0.036
9.894,-0.038
9.896,-0.038
9.898,-0.037
9.900,-0.035
9.902,-0.036
9.904,-0.038
9.906,-0.043
9.908,-0.048
9.910,-0.054
9.912,-0.059
9.914,-0.062
9.916,-0.065
9.918,-0.067
9.920,-0.068
9.922,-0.067
9.924,-0.067
9.926,-0.065
9.928,-0.063
9.930,-0.062
9.932,-0.062
9.934,-0.063
9.936,-0.066
9.938,-0.070
9.940,-0.073
9.942,-0.074
9.944,-0.073
9.946,-0.071
9.948,-0.067
9.950,-0.062
9.952,-0.057
9.954,-0.053
9.956,-0.050
9.958,-0.047
9.960,-0.047
9.962,-0.049
9.964,-0.053
9.966,-0.059
9.968,-0.066
9.970,-0.071
9.972,-0.073
9.974,-0.072
9.976,-0.068
9.978,-0.062
9.980,-0.058
9.982,-0.055
9.984,-0.053
9.986,-0.053
9.988,-0.052
9.990,-0.050
9.992,-0.049
9.994,-0.048
9.996,-0.049
9.998,-0.052
10.000,-0.057
10.002,-0.062
10.004,-0.065
10.006,-0.065
10.008,-0.062
10.010,-0.058
10.012,-0.055
10.014,-0.053
10.016,-0.052
10.018,-0.053
10.020,-0.053
10.022,-0.052
10.024,-0.050
10.026,-0.048
10.028,-0.046
10.030,-0.047
10.032,-0.049
10.034,-0.051
10.036,-0.054
10.038,-0.056
10.040,-0.057
10.042,-0.057
10.044,-0.058
10.046,-0.060
10.048,-0.061
10.050,-0.063
10.052,-0.063
10.054,-0.061
10.056,-0.058
10.058,-0.052
10.060,-0.045
10.062,-0.038
10.064,-0.033
10.066,-0.031
10.068,-0.033
10.070,-0.038
10.072,-0.045
10.074,-0.051
10.076,-0.055
10.078,-0.057
10.080,-0.057
10.082,-0.054
10.084,-0.050
10.086,-0.046
10.088,-0.041
10.090,-0.036
10.092,-0.031
10.094,-0.027
10.096,-0.023
10.098,-0.020
10.100,-0.016
10.102,-0.012
10.104,-0.007
10.106,-0.002
10.108,0.003
10.110,0.004
10.112,0.003
10.114,-0.001
10.116,-0.007
10.118,-0.012
10.120,-0.013
10.122,-0.009
10.124,-0.000
10.126,0.013
10.128,0.027
10.130,0.040
10.132,0.049
10.134,0.052
10.136,0.050
10.138,0.044
10.140,0.034
10.142,0.020
10.144,0.004
10.146,-0.014
10.148,-0.030
10.150,-0.044
10.152,-0.053
10.154,-0.057
10.156,-0.058
10.158,-0.058
10.160,-0.058
10.162,-0.060
10.164,-0.060
10.166,-0.059
10.168,-0.055
10.170,-0.048
10.172,-0.043
10.174,-0.041
10.176,-0.043
10.178,-0.049
10.180,-0.057
10.182,-0.063
10.184,-0.066
10.186,-0.064
10.188,-0.059
10.190,-0.053
10.192,-0.049
10.194,-0.046
10.196,-0.047
10.198,-0.050
10.200,-0.056
10.202,-0.062
10.204,-0.067
10.206,-0.068
10.208,-0.064
10.210,-0.055
10.212,-0.040
10.214,-0.019
10.216,0.005
10.218,0.030
10.220,0.054
10.222,0.075
10.224,0.092
10.226,0.104
10.228,0.115
10.230,0.129
10.232,0.151
10.234,0.183
10.236,0.225
10.238,0.271
10.240,0.310
10.242,0.334
10.244,0.335
10.246,0.313
10.248,0.269
10.250,0.211
10.252,0.147
10.254,0.083
10.256,0.025
10.258,-0.024
10.260,-0.061
10.262,-0.085
10.264,-0.095
10.266,-0.093
10.268,-0.083
10.270,-0.070
10.272,-0.057
10.274,-0.045
10.276,-0.038
10.278,-0.033
10.280,-0.032
10.282,-0.034
10.284,-0.038
10.286,-0.044
10.288,-0.049
10.290,-0.053
10.292,-0.056
10.294,-0.058
10.296,-0.059
10.298,-0.060
10.300,-0.061
10.302,-0.060
10.304,-0.056
10.306,-0.047
10.308,-0.035
10.310,-0.024
10.312,-0.016
10.314,-0.014
10.316,-0.019
10.318,-0.030
10.320,-0.042
10.322,-0.053
10.324,-0.060
10.326,-0.062
10.328,-0.060
10.330,-0.057
10.332,-0.055
10.334,-0.054
10.336,-0.053
10.338,-0.051
10.340,-0.048
10.342,-0.045
10.344,-0.041
10.346,-0.038
10.348,-0.036
10.350,-0.035
10.352,-0.034
10.354,-0.033
10.356,-0.030
10.358,-0.028
10.360,-0.026
10.362,-0.023
10.364,-0.022
10.366,-0.020
10.368,-0.019
10.370,-0.018
10.372,-0.019
10.374,-0.020
10.376,-0.021
10.378,-0.021
10.380,-0.019
10.382,-0.015
10.384,-0.009
10.386,-0.004
10.388,-0.001
10.390,-0.001
10.392,-0.004
10.394,-0.007
10.396,-0.011
10.398,-0.014
10.400,-0.014
10.402,-0.012
10.404,-0.007
10.406,-0.002
10.408,0.003
10.410,0.008
10.412,0.011
10.414,0.013
10.416,0.015
10.418,0.016
10.420,0.017
10.422,0.019
10.424,0.022
10.426,0.027
10.428,0.033
10.430,0.041
10.432,0.050
10.434,0.059
10.436,0.066
10.438,0.072
10.440,0.075
10.442,0.076
10.444,0.077
10.446,0.078
10.448,0.081
10.450,0.085
10.452,0.092
10.454,0.099
10.456,0.108
10.458,0.115
10.460,0.122
10.462,0.127
10.464,0.129
10.466,0.130
10.468,0.131
10.470,0.132
10.472,0.134
10.474,0.139
10.476,0.146
10.478,0.152
10.480,0.155
10.482,0.156
10.484,0.153
10.486,0.147
10.488,0.141
10.490,0.136
10.492,0.132
10.494,0.129
10.496,0.126
10.498,0.121
10.500,0.114
10.502,0.104
10.504,0.092
10.506,0.081
10.508,0.070
10.510,0.060
10.512,0.052
10.514,0.043
10.516,0.036
10.518,0.029
10.520,0.024
10.522,0.020
10.524,0.016
10.526,0.011
10.528,0.004
10.530,-0.006
10.532,-0.019
10.534,-0.032
10.536,-0.044
10.538,-0.054
10.540,-0.060
10.542,-0.062
10.544,-0.062
10.546,-0.060
10.548,-0.058
10.550,-0.058
10.552,-0.059
10.554,-0.062
10.556,-0.066
10.558,-0.069
10.560,-0.072
10.562,-0.074
10.564,-0.076
10.566,-0.077
10.568,-0.079
10.570,-0.080
10.572,-0.080
10.574,-0.079
10.576,-0.076
10.578,-0.073
10.580,-0.071
10.582,-0.069
10.584,-0.068
10.586,-0.067
10.588,-0.067
10.590,-0.069
10.592,-0.071
10.594,-0.074
10.596,-0.078
10.598,-0.080
10.600,-0.081
10.602,-0.079
10.604,-0.075
10.606,-0.069
10.608,-0.063
10.610,-0.058
10.612,-0.054
10.614,-0.053
10.616,-0.055
10.618,-0.060
10.620,-0.067
10.622,-0.073
10.624,-0.079
10.626,-0.082
10.628,-0.081
10.630,-0.077
10.632,-0.071
10.634,-0.065
10.636,-0.059
10.638,-0.056
10.640,-0.056
10.642,-0.059
10.644,-0.063
10.646,-0.068
10.648,-0.073
10.650,-0.076
10.652,-0.079
10.654,-0.080
10.656,-0.079
10.658,-0.077
10.660,-0.072
10.662,-0.067
10.664,-0.061
10.666,-0.058
10.668,-0.056
10.670,-0.057
10.672,-0.060
10.674,-0.063
10.676,-0.066
10.678,-0.068
10.680,-0.069
10.682,-0.068
10.684,-0.065
10.686,-0.060
10.688,-0.051
10.690,-0.041
10.692,-0.029
10.694,-0.019
10.696,-0.011
10.698,-0.008
10.700,-0.008
10.702,-0.011
10.704,-0.017
10.706,-0.024
10.708,-0.033
10.710,-0.040
10.712,-0.043
10.714,-0.041
10.716,-0.031
10.718,-0.015
10.720,0.004
10.722,0.022
10.724,0.037
10.726,0.045
10.728,0.046
10.730,0.040
10.732,0.029
10.734,0.017
10.736,0.003
10.738,-0.009
10.740,-0.020
10.742,-0.030
10.744,-0.039
10.746,-0.047
10.748,-0.054
10.750,-0.060
10.752,-0.063
10.754,-0.063
10.756,-0.060
10.758,-0.056
10.760,-0.052
10.762,-0.049
10.764,-0.049
10.766,-0.053
10.768,-0.058
10.770,-0.065
10.772,-0.072
10.774,-0.077
10.776,-0.078
10.778,-0.075
10.780,-0.070
10.782,-0.063
10.784,-0.058
10.786,-0.057
10.788,-0.060
10.790,-0.066
10.792,-0.074
10.794,-0.081
10.796,-0.086
10.798,-0.087
10.800,-0.085
10.802,-0.078
10.804,-0.067
10.806,-0.051
10.808,-0.029
10.810,-0.004
10.812,0.022
10.814,0.044
10.816,0.061
10.818,0.072
10.820,0.080
10.822,0.092
10.824,0.112
10.826,0.145
10.828,0.187
10.830,0.235
10.832,0.279
10.834,0.308
10.836,0.318
10.838,0.304
10.840,0.269
10.842,0.217
10.844,0.157
10.846,0.093
10.848,0.033
10.850,-0.021
10.852,-0.064
10.854,-0.094
10.856,-0.109
10.858,-0.110
10.860,-0.101
10.862,-0.084
10.864,-0.065
10.866,-0.049
10.868,-0.037
10.870,-0.031
10.872,-0.030
10.874,-0.032
10.876,-0.037
10.878,-0.043
10.880,-0.048
10.882,-0.052
10.884,-0.055
10.886,-0.057
10.888,-0.059
10.890,-0.059
10.892,-0.059
10.894,-0.058
10.896,-0.055
10.898,-0.051
10.900,-0.045
10.902,-0.040
10.904,-0.035
10.906,-0.031
10.908,-0.029
10.910,-0.029
10.912,-0.029
10.914,-0.030
10.916,-0.031
10.918,-0.031
10.920,-0.030
10.922,-0.027
10.924,-0.024
10.926,-0.021
10.928,-0.019
10.930,-0.019
10.932,-0.022
10.934,-0.026
10.936,-0.029
10.938,-0.031
10.940,-0.031
10.942,-0.029
10.944,-0.026
10.946,-0.022
10.948,-0.019
10.950,-0.016
10.952,-0.013
10.954,-0.010
10.956,-0.005
10.958,0.000
10.960,0.006
10.962,0.010
10.964,0.012
10.966,0.011
10.968,0.009
10.970,0.008
10.972,0.007
10.974,0.008
10.976,0.011
10.978,0.014
10.980,0.016
10.982,0.018
10.984,0.018
10.986,0.019
10.988,0.019
10.990,0.020
10.992,0.021
10.994,0.023
10.996,0.025
10.998,0.028
11.000,0.031
11.002,0.034
11.004,0.037
11.006,0.041
11.008,0.045
11.010,0.049
11.012,0.053
11.014,0.055
11.016,0.057
11.018,0.058
11.020,0.060
11.022,0.064
11.024,0.070
11.026,0.077
11.028,0.085
11.030,0.092
11.032,0.097
11.034,0.101
11.036,0.103
11.038,0.106
11.040,0.109
11.042,0.114
11.044,0.121
11.046,0.129
11.048,0.136
11.050,0.144
11.052,0.151
11.054,0.158
11.056,0.163
11.058,0.167
11.060,0.168
11.062,0.167
11.064,0.164
11.066,0.160
11.068,0.157
11.070,0.157
11.072,0.160
11.074,0.164
11.076,0.168
11.078,0.171
11.080,0.171
11.082,0.167
11.084,0.162
11.086,0.156
11.088,0.148
11.090,0.141
11.092,0.133
11.094,0.124
11.096,0.115
11.098,0.106
11.100,0.097
11.102,0.089
11.104,0.081
11.106,0.072
11.108,0.062
11.110,0.051
11.112,0.041
11.114,0.031
11.116,0.024
11.118,0.019
11.120,0.015
11.122,0.010
11.124,0.005
11.126,-0.001
11.128,-0.007
11.130,-0.013
11.132,-0.018
11.134,-0.023
11.136,-0.028
11.138,-0.032
11.140,-0.037
11.142,-0.042
11.144,-0.045
11.146,-0.046
11.148,-0.045
11.150,-0.042
11.152,-0.039
11.154,-0.038
11.156,-0.037
11.158,-0.038
11.160,-0.038
11.162,-0.038
11.164,-0.036
11.166,-0.035
11.168,-0.034
11.170,-0.036
11.172,-0.039
11.174,-0.043
11.176,-0.047
11.178,-0.051
11.180,-0.053
11.182,-0.054
11.184,-0.053
11.186,-0.051
11.188,-0.049
11.190,-0.046
11.192,-0.044
11.194,-0.042
11.196,-0.042
11.198,-0.041
11.200,-0.041
11.202,-0.041
11.204,-0.041
11.206,-0.040
11.208,-0.041
11.210,-0.041
11.212,-0.041
11.214,-0.040
11.216,-0.037
11.218,-0.033
11.220,-0.028
11.222,-0.025
11.224,-0.022
11.226,-0.022
11.228,-0.024
11.230,-0.027
11.232,-0.030
11.234,-0.033
11.236,-0.034
11.238,-0.034
11.240,-0.032
11.242,-0.029
11.244,-0.026
11.246,-0.025
11.248,-0.024
11.250,-0.024
11.252,-0.025
11.254,-0.025
11.256,-0.024
11.258,-0.023
11.260,-0.020
11.262,-0.018
11.264,-0.016
11.266,-0.012
11.268,-0.008
11.270,-0.002
11.272,0.005
11.274,0.012
11.276,0.019
11.278,0.025
11.280,0.028
11.282,0.029
11.284,0.027
11.286,0.023
11.288,0.019
11.290,0.017
11.292,0.017
11.294,0.022
11.296,0.030
11.298,0.040
11.300,0.050
11.302,0.057
11.304,0.061
11.306,0.061
11.308,0.056
11.310,0.048
11.312,0.037
11.314,0.024
11.316,0.010
11.318,-0.002
11.320,-0.013
11.322,-0.023
11.324,-0.031
11.326,-0.038
11.328,-0.043
11.330,-0.045
11.332,-0.045
11.334,-0.043
11.336,-0.041
11.338,-0.039
11.340,-0.039
11.342,-0.043
11.344,-0.048
11.346,-0.053
11.348,-0.055
11.350,-0.054
11.352,-0.051
11.354,-0.046
11.356,-0.042
11.358,-0.041
11.360,-0.042
11.362,-0.044
11.364,-0.047
11.366,-0.049
11.368,-0.051
11.370,-0.053
11.372,-0.054
11.374,-0.056
11.376,-0.057
11.378,-0.055
11.380,-0.051
11.382,-0.041
11.384,-0.027
11.386,-0.009
11.388,0.012
11.390,0.032
11.392,0.049
11.394,0.060
11.396,0.068
11.398,0.073
11.400,0.082
11.402,0.099
11.404,0.125
11.406,0.161
11.408,0.201
11.410,0.237
11.412,0.259
11.414,0.262
11.416,0.244
11.418,0.209
11.420,0.162
11.422,0.111
11.424,0.059
11.426,0.011
11.428,-0.032
11.430,-0.068
11.432,-0.093
11.434,-0.107
11.436,-0.107
11.438,-0.095
11.440,-0.077
11.442,-0.057
11.444,-0.041
11.446,-0.031
11.448,-0.028
11.450,-0.030
11.452,-0.035
11.454,-0.038
11.456,-0.037
11.458,-0.033
11.460,-0.026
11.462,-0.021
11.464,-0.019
11.466,-0.022
11.468,-0.030
11.470,-0.038
11.472,-0.045
11.474,-0.049
11.476,-0.048
11.478,-0.043
11.480,-0.039
11.482,-0.035
11.484,-0.034
11.486,-0.033
11.488,-0.032
11.490,-0.031
11.492,-0.028
11.494,-0.025
11.496,-0.022
11.498,-0.020
11.500,-0.021
11.502,-0.022
11.504,-0.025
11.506,-0.027
11.508,-0.029
11.510,-0.031
11.512,-0.031
11.514,-0.031
11.516,-0.028
11.518,-0.024
11.520,-0.018
11.522,-0.013
11.524,-0.008
11.526,-0.005
11.528,-0.003
11.530,-0.002
11.532,-0.001
11.534,-0.001
11.536,-0.001
11.538,-0.002
11.540,-0.003
11.542,-0.004
11.544,-0.005
11.546,-0.004
11.548,-0.002
11.550,0.000
11.552,0.003
11.554,0.005
11.556,0.006
11.558,0.007
11.560,0.007
11.562,0.006
11.564,0.006
11.566,0.005
11.568,0.005
11.570,0.006
11.572,0.009
11.574,0.014
11.576,0.020
11.578,0.027
11.580,0.033
11.582,0.038
11.584,0.043
11.586,0.048
11.588,0.053
11.590,0.058
11.592,0.061
11.594,0.063
11.596,0.063
11.598,0.062
11.600,0.062
11.602,0.063
11.604,0.068
11.606,0.075
11.608,0.084
11.610,0.093
11.612,0.101
11.614,0.108
11.616,0.113
11.618,0.118
11.620,0.121
11.622,0.124
11.624,0.126
11.626,0.128
11.628,0.132
11.630,0.137
11.632,0.143
11.634,0.150
11.636,0.156
11.638,0.159
11.640,0.160
11.642,0.158
11.644,0.155
11.646,0.152
11.648,0.151
11.650,0.150
11.652,0.150
11.654,0.150
11.656,0.149
11.658,0.147
11.660,0.144
11.662,0.141
11.664,0.139
11.666,0.135
11.668,0.129
11.670,0.121
11.672,0.108
11.674,0.094
11.676,0.080
11.678,0.068
11.680,0.059
11.682,0.054
11.684,0.050
11.686,0.046
11.688,0.040
11.690,0.033
11.692,0.024
11.694,0.015
11.696,0.006
11.698,-0.002
11.700,-0.010
11.702,-0.016
11.704,-0.022
11.706,-0.028
11.708,-0.033
11.710,-0.038
11.712,-0.042
11.714,-0.044
11.716,-0.046
11.718,-0.047
11.720,-0.048
11.722,-0.049
11.724,-0.051
11.726,-0.053
11.728,-0.056
11.730,-0.060
11.732,-0.062
11.734,-0.064
11.736,-0.066
11.738,-0.066
11.740,-0.066
11.742,-0.066
11.744,-0.066
11.746,-0.066
11.748,-0.067
11.750,-0.068
11.752,-0.068
11.754,-0.067
11.756,-0.064
11.758,-0.061
11.760,-0.057
11.762,-0.053
11.764,-0.049
11.766,-0.047
11.768,-0.047
11.770,-0.047
11.772,-0.048
11.774,-0.048
11.776,-0.047
11.778,-0.045
11.780,-0.044
11.782,-0.043
11.784,-0.044
11.786,-0.047
11.788,-0.051
11.790,-0.055
11.792,-0.057
11.794,-0.058
11.796,-0.057
11.798,-0.055
11.800,-0.054
11.802,-0.052
11.804,-0.049
11.806,-0.046
11.808,-0.040
11.810,-0.034
11.812,-0.027
11.814,-0.023
11.816,-0.021
11.818,-0.023
11.820,-0.027
11.822,-0.032
11.824,-0.036
11.826,-0.037
11.828,-0.037
11.830,-0.034
11.832,-0.030
11.834,-0.027
11.836,-0.025
11.838,-0.022
11.840,-0.019
11.842,-0.016
11.844,-0.011
11.846,-0.006
11.848,-0.002
11.850,0.001
11.852,0.002
11.854,0.001
11.856,-0.001
11.858,-0.004
11.860,-0.006
11.862,-0.006
11.864,-0.005
11.866,-0.003
11.868,0.001
11.870,0.006
11.872,0.012
11.874,0.017
11.876,0.022
11.878,0.024
11.880,0.024
11.882,0.021
11.884,0.015
11.886,0.007
11.888,-0.001
11.890,-0.009
11.892,-0.016
11.894,-0.023
11.896,-0.030
11.898,-0.037
11.900,-0.044
11.902,-0.048
11.904,-0.051
11.906,-0.051
11.908,-0.050
11.910,-0.049
11.912,-0.050
11.914,-0.053
11.916,-0.058
11.918,-0.064
11.920,-0.070
11.922,-0.073
11.924,-0.074
11.926,-0.072
11.928,-0.069
11.930,-0.066
11.932,-0.064
11.934,-0.063
11.936,-0.065
11.938,-0.069
11.940,-0.073
11.942,-0.075
11.944,-0.076
11.946,-0.073
11.948,-0.068
11.950,-0.061
11.952,-0.052
11.954,-0.039
11.956,-0.023
11.958,-0.005
11.960,0.015
11.962,0.034
11.964,0.048
11.966,0.058
11.968,0.065
11.970,0.072
11.972,0.085
11.974,0.107
11.976,0.141
11.978,0.180
11.980,0.219
11.982,0.246
11.984,0.255
11.986,0.241
11.988,0.207
11.990,0.158
11.992,0.102
11.994,0.046
11.996,-0.004
11.998,-0.047
12.000,-0.081
12.002,-0.104
12.004,-0.117
12.006,-0.118
12.008,-0.108
12.010,-0.090
12.012,-0.071
12.014,-0.055
12.016,-0.045
12.018,-0.043
12.020,-0.047
12.022,-0.053
12.024,-0.057
12.026,-0.058
12.028,-0.055
12.030,-0.051
12.032,-0.047
12.034,-0.047
12.036,-0.051
12.038,-0.057
12.040,-0.065
12.042,-0.070
12.044,-0.072
12.046,-0.068
12.048,-0.061
12.050,-0.052
12.052,-0.043
12.054,-0.036
12.056,-0.032
12.058,-0.032
12.060,-0.036
12.062,-0.042
12.064,-0.051
12.066,-0.060
12.068,-0.067
12.070,-0.071
12.072,-0.072
12.074,-0.069
12.076,-0.064
12.078,-0.057
12.080,-0.051
12.082,-0.045
12.084,-0.041
12.086,-0.039
12.088,-0.038
12.090,-0.040
12.092,-0.042
12.094,-0.043
12.096,-0.044
12.098,-0.042
12.100,-0.040
12.102,-0.037
12.104,-0.035
12.106,-0.034
12.108,-0.033
12.110,-0.033
12.112,-0.032
12.114,-0.030
12.116,-0.027
12.118,-0.024
12.120,-0.021
12.122,-0.019
12.124,-0.015
12.126,-0.011
12.128,-0.005
12.130,0.000
12.132,0.004
12.134,0.004
12.136,0.001
12.138,-0.004
12.140,-0.007
12.142,-0.008
12.144,-0.006
12.146,-0.002
12.148,0.002
12.150,0.005
12.152,0.007
12.154,0.009
12.156,0.012
12.158,0.017
12.160,0.022
12.162,0.027
12.164,0.031
12.166,0.034
12.168,0.037
12.170,0.042
12.172,0.048
12.174,0.055
12.176,0.062
12.178,0.068
12.180,0.072
12.182,0.075
12.184,0.078
12.186,0.082
12.188,0.086
12.190,0.090
12.192,0.093
12.194,0.096
12.196,0.098
12.198,0.101
12.200,0.106
12.202,0.112
12.204,0.119
12.206,0.126
12.208,0.131
12.210,0.133
12.212,0.134
12.214,0.133
12.216,0.132
12.218,0.130
12.220,0.129
12.222,0.127
12.224,0.125
12.226,0.123
12.228,0.121
12.230,0.120
12.232,0.119
12.234,0.118
12.236,0.116
12.238,0.112
12.240,0.106
12.242,0.098
12.244,0.088
12.246,0.076
12.248,0.065
12.250,0.053
12.252,0.042
12.254,0.031
12.256,0.020
12.258,0.011
12.260,0.001
12.262,-0.007
12.264,-0.015
12.266,-0.022
12.268,-0.028
12.270,-0.034
12.272,-0.038
12.274,-0.042
12.276,-0.044
12.278,-0.047
12.280,-0.049
12.282,-0.051
12.284,-0.053
12.286,-0.055
12.288,-0.058
12.290,-0.062
12.292,-0.066
12.294,-0.072
12.296,-0.077
12.298,-0.083
12.300,-0.087
12.302,-0.089
12.304,-0.089
12.306,-0.087
12.308,-0.084
12.310,-0.080
12.312,-0.077
12.314,-0.074
12.316,-0.074
12.318,-0.074
12.320,-0.073
12.322,-0.072
12.324,-0.070
12.326,-0.067
12.328,-0.064
12.330,-0.061
12.332,-0.061
12.334,-0.061
12.336,-0.063
12.338,-0.064
12.340,-0.065
12.342,-0.064
12.344,-0.064
12.346,-0.063
12.348,-0.062
12.350,-0.061
12.352,-0.060
12.354,-0.058
12.356,-0.055
12.358,-0.054
12.360,-0.053
12.362,-0.055
12.364,-0.058
12.366,-0.062
12.368,-0.065
12.370,-0.066
12.372,-0.064
12.374,-0.060
12.376,-0.055
12.378,-0.049
12.380,-0.044
12.382,-0.041
12.384,-0.041
12.386,-0.043
12.388,-0.046
12.390,-0.050
12.392,-0.053
12.394,-0.055
12.396,-0.056
12.398,-0.056
12.400,-0.057
12.402,-0.058
12.404,-0.060
12.406,-0.060
12.408,-0.060
12.410,-0.058
12.412,-0.056
12.414,-0.055
12.416,-0.056
12.418,-0.057
12.420,-0.059
12.422,-0.059
12.424,-0.058
12.426,-0.054
12.428,-0.051
12.430,-0.048
12.432,-0.045
12.434,-0.041
12.436,-0.036
12.438,-0.029
12.440,-0.021
12.442,-0.013
12.444,-0.007
12.446,-0.007
12.448,-0.011
12.450,-0.020
12.452,-0.030
12.454,-0.039
12.456,-0.043
12.458,-0.041
12.460,-0.032
12.462,-0.017
12.464,0.000
12.466,0.016
12.468,0.026
12.470,0.030
12.472,0.028
12.474,0.021
12.476,0.011
12.478,0.000
12.480,-0.011
12.482,-0.023
12.484,-0.034
12.486,-0.044
12.488,-0.052
12.490,-0.059
12.492,-0.062
12.494,-0.064
12.496,-0.066
12.498,-0.068
12.500,-0.070
12.502,-0.073
12.504,-0.075
12.506,-0.076
12.508,-0.075
12.510,-0.074
12.512,-0.074
12.514,-0.075
12.516,-0.077
12.518,-0.079
12.520,-0.079
12.522,-0.077
12.524,-0.072
12.526,-0.066
12.528,-0.060
12.530,-0.058
12.532,-0.059
12.534,-0.064
12.536,-0.072
12.538,-0.080
12.540,-0.087
12.542,-0.090
12.544,-0.089
12.546,-0.082
12.548,-0.068
12.550,-0.047
12.552,-0.022
12.554,0.006
12.556,0.033
12.558,0.057
12.560,0.075
12.562,0.086
12.564,0.095
12.566,0.105
12.568,0.123
12.570,0.151
12.572,0.189
12.574,0.231
12.576,0.269
12.578,0.293
12.580,0.295
12.582,0.275
12.584,0.234
12.586,0.180
12.588,0.119
12.590,0.058
12.592,0.004
12.594,-0.041
12.596,-0.075
12.598,-0.095
12.600,-0.102
12.602,-0.098
12.604,-0.086
12.606,-0.071
12.608,-0.057
12.610,-0.047
12.612,-0.042
12.614,-0.043
12.616,-0.047
12.618,-0.053
12.620,-0.058
12.622,-0.061
12.624,-0.062
12.626,-0.060
12.628,-0.057
12.630,-0.055
12.632,-0.053
12.634,-0.053
12.636,-0.054
12.638,-0.054
12.640,-0.053
12.642,-0.051
12.644,-0.049
12.646,-0.046
12.648,-0.044
12.650,-0.044
12.652,-0.044
12.654,-0.045
12.656,-0.047
12.658,-0.047
12.660,-0.044
12.662,-0.040
12.664,-0.033
12.666,-0.027
12.668,-0.023
12.670,-0.023
12.672,-0.027
12.674,-0.034
12.676,-0.042
12.678,-0.048
12.680,-0.052
12.682,-0.052
12.684,-0.050
12.686,-0.047
12.688,-0.042
12.690,-0.037
12.692,-0.033
12.694,-0.029
12.696,-0.026
12.698,-0.025
12.700,-0.024
12.702,-0.023
12.704,-0.023
12.706,-0.022
12.708,-0.021
12.710,-0.020
12.712,-0.020
12.714,-0.021
12.716,-0.021
12.718,-0.020
12.720,-0.017
12.722,-0.012
12.724,-0.008
12.726,-0.004
12.728,-0.003
12.730,-0.003
12.732,-0.004
12.734,-0.004
12.736,-0.002
12.738,0.002
12.740,0.008
12.742,0.013
12.744,0.017
12.746,0.018
12.748,0.018
12.750,0.018
12.752,0.019
12.754,0.023
12.756,0.027
12.758,0.031
12.760,0.034
12.762,0.035
12.764,0.037
12.766,0.040
12.768,0.046
12.770,0.054
12.772,0.063
12.774,0.070
12.776,0.074
12.778,0.075
12.780,0.075
12.782,0.075
12.784,0.078
12.786,0.084
12.788,0.092
12.790,0.100
12.792,0.107
12.794,0.113
12.796,0.119
12.798,0.124
12.800,0.128
12.802,0.131
12.804,0.133
12.806,0.133
12.808,0.131
12.810,0.129
12.812,0.126
12.814,0.125
12.816,0.123
12.818,0.122
12.820,0.121
12.822,0.119
12.824,0.118
12.826,0.118
12.828,0.118
12.830,0.118
12.832,0.117
12.834,0.113
12.836,0.108
12.838,0.100
12.840,0.091
12.842,0.080
12.844,0.068
12.846,0.056
12.848,0.043
12.850,0.032
12.852,0.022
12.854,0.014
12.856,0.008
12.858,0.004
12.860,0.001
12.862,-0.002
12.864,-0.006
12.866,-0.010
12.868,-0.016
12.870,-0.023
12.872,-0.030
12.874,-0.038
12.876,-0.044
12.878,-0.047
12.880,-0.048
12.882,-0.046
12.884,-0.043
12.886,-0.041
12.888,-0.041
12.890,-0.044
12.892,-0.049
12.894,-0.054
12.896,-0.060
12.898,-0.064
12.900,-0.066
12.902,-0.067
12.904,-0.067
12.906,-0.067
12.908,-0.067
12.910,-0.067
12.912,-0.066
12.914,-0.064
12.916,-0.062
12.918,-0.060
12.920,-0.059
12.922,-0.060
12.924,-0.062
12.926,-0.062
12.928,-0.059
12.930,-0.054
12.932,-0.047
12.934,-0.042
12.936,-0.040
12.938,-0.042
12.940,-0.048
12.942,-0.056
12.944,-0.062
12.946,-0.066
12.948,-0.065
12.950,-0.062
12.952,-0.058
12.954,-0.054
12.956,-0.051
12.958,-0.049
12.960,-0.048
12.962,-0.048
12.964,-0.049
12.966,-0.050
12.968,-0.051
12.970,-0.053
12.972,-0.054
12.974,-0.055
12.976,-0.056
12.978,-0.057
12.980,-0.058
12.982,-0.059
12.984,-0.060
12.986,-0.060
12.988,-0.059
12.990,-0.057
12.992,-0.056
12.994,-0.056
12.996,-0.054
12.998,-0.053
13.000,-0.050
13.002,-0.047
13.004,-0.045
13.006,-0.044
13.008,-0.044
13.010,-0.046
13.012,-0.048
13.014,-0.048
13.016,-0.046
13.018,-0.043
13.020,-0.039
13.022,-0.036
13.024,-0.033
13.026,-0.031
13.028,-0.030
13.030,-0.029
13.032,-0.027
13.034,-0.023
13.036,-0.016
13.038,-0.007
13.040,0.002
13.042,0.010
13.044,0.014
13.046,0.014
13.048,0.009
13.050,0.001
13.052,-0.006
13.054,-0.011
13.056,-0.012
13.058,-0.008
13.060,0.001
13.062,0.012
13.064,0.024
13.066,0.034
13.068,0.041
13.070,0.044
13.072,0.043
13.074,0.037
13.076,0.027
13.078,0.015
13.080,0.002
13.082,-0.012
13.084,-0.025
13.086,-0.035
13.088,-0.043
13.090,-0.049
13.092,-0.053
13.094,-0.057
13.096,-0.061
13.098,-0.064
13.100,-0.065
13.102,-0.063
13.104,-0.059
13.106,-0.053
13.108,-0.048
13.110,-0.045
13.112,-0.045
13.114,-0.049
13.116,-0.054
13.118,-0.057
13.120,-0.058
13.122,-0.055
13.124,-0.051
13.126,-0.047
13.128,-0.045
13.130,-0.047
13.132,-0.052
13.134,-0.057
13.136,-0.062
13.138,-0.063
13.140,-0.062
13.142,-0.056
13.144,-0.046
13.146,-0.031
13.148,-0.013
13.150,0.008
13.152,0.031
13.154,0.053
13.156,0.072
13.158,0.086
13.160,0.095
13.162,0.101
13.164,0.108
13.166,0.122
13.168,0.146
13.170,0.182
13.172,0.224
13.174,0.264
13.176,0.291
13.178,0.299
13.180,0.283
13.182,0.247
13.184,0.195
13.186,0.135
13.188,0.075
13.190,0.019
13.192,-0.027
13.194,-0.061
13.196,-0.080
13.198,-0.085
13.200,-0.078
13.202,-0.063
13.204,-0.046
13.206,-0.032
13.208,-0.024
13.210,-0.023
13.212,-0.026
13.214,-0.032
13.216,-0.038
13.218,-0.043
13.220,-0.045
13.222,-0.044
13.224,-0.041
13.226,-0.037
13.228,-0.035
13.230,-0.034
13.232,-0.036
13.234,-0.038
13.236,-0.038
13.238,-0.036
13.240,-0.029
13.242,-0.021
13.244,-0.014
13.246,-0.010
13.248,-0.012
13.250,-0.018
13.252,-0.027
13.254,-0.037
13.256,-0.045
13.258,-0.049
13.260,-0.051
13.262,-0.049
13.264,-0.044
13.266,-0.037
13.268,-0.027
13.270,-0.017
13.272,-0.008
13.274,-0.003
13.276,-0.002
13.278,-0.005
13.280,-0.011
13.282,-0.017
13.284,-0.021
13.286,-0.021
13.288,-0.019
13.290,-0.016
13.292,-0.013
13.294,-0.010
13.296,-0.007
13.298,-0.004
13.300,-0.000
13.302,0.004
13.304,0.008
13.306,0.011
13.308,0.011
13.310,0.009
13.312,0.006
13.314,0.003
13.316,0.001
13.318,0.001
13.320,0.003
13.322,0.004
13.324,0.006
13.326,0.006
13.328,0.008
13.330,0.010
13.332,0.015
13.334,0.021
13.336,0.028
13.338,0.033
13.340,0.037
13.342,0.037
13.344,0.037
13.346,0.036
13.348,0.038
13.350,0.043
13.352,0.050
13.354,0.057
13.356,0.062
13.358,0.064
13.360,0.063
13.362,0.059
13.364,0.056
13.366,0.054
13.368,0.055
13.370,0.060
13.372,0.069
13.374,0.079
13.376,0.090
13.378,0.101
13.380,0.110
13.382,0.118
13.384,0.125
13.386,0.130
13.388,0.134
13.390,0.137
13.392,0.137
13.394,0.137
13.396,0.136
13.398,0.136
13.400,0.138
13.402,0.142
13.404,0.149
13.406,0.156
13.408,0.162
13.410,0.165
13.412,0.166
13.414,0.164
13.416,0.160
13.418,0.155
13.420,0.151
13.422,0.146
13.424,0.142
13.426,0.137
13.428,0.132
13.430,0.125
13.432,0.118
13.434,0.111
13.436,0.103
13.438,0.096
13.440,0.089
13.442,0.081
13.444,0.071
13.446,0.061
13.448,0.050
13.450,0.040
13.452,0.032
13.454,0.026
13.456,0.021
13.458,0.018
13.460,0.015
13.462,0.011
13.464,0.007
13.466,0.003
13.468,-0.001
13.470,-0.006
13.472,-0.010
13.474,-0.015
13.476,-0.020
13.478,-0.024
13.480,-0.028
13.482,-0.031
13.484,-0.033
13.486,-0.036
13.488,-0.038
13.490,-0.040
13.492,-0.042
13.494,-0.043
13.496,-0.044
13.498,-0.044
13.500,-0.042
13.502,-0.040
13.504,-0.037
13.506,-0.034
13.508,-0.032
13.510,-0.033
13.512,-0.036
13.514,-0.040
13.516,-0.044
13.518,-0.047
13.520,-0.047
13.522,-0.044
13.524,-0.040
13.526,-0.036
13.528,-0.033
13.530,-0.032
13.532,-0.034
13.534,-0.036
13.536,-0.040
13.538,-0.044
13.540,-0.047
13.542,-0.049
13.544,-0.049
13.546,-0.048
13.548,-0.044
13.550,-0.039
13.552,-0.032
13.554,-0.025
13.556,-0.019
13.558,-0.015
13.560,-0.015
13.562,-0.019
13.564,-0.026
13.566,-0.033
13.568,-0.038
13.570,-0.041
13.572,-0.040
13.574,-0.036
13.576,-0.032
13.578,-0.028
13.580,-0.026
13.582,-0.025
13.584,-0.025
13.586,-0.026
13.588,-0.026
13.590,-0.026
13.592,-0.028
13.594,-0.029
13.596,-0.031
13.598,-0.032
13.600,-0.031
13.602,-0.029
13.604,-0.026
13.606,-0.024
13.608,-0.023
13.610,-0.025
13.612,-0.027
13.614,-0.030
13.616,-0.031
13.618,-0.030
13.620,-0.027
13.622,-0.024
13.624,-0.021
13.626,-0.020
13.628,-0.020
13.630,-0.019
13.632,-0.017
13.634,-0.013
13.636,-0.008
13.638,-0.001
13.640,0.007
13.642,0.013
13.644,0.019
13.646,0.023
13.648,0.025
13.650,0.024
13.652,0.021
13.654,0.015
13.656,0.008
13.658,0.002
13.660,-0.001
13.662,-0.001
13.664,0.005
13.666,0.016
13.668,0.029
13.670,0.043
13.672,0.054
13.674,0.061
13.676,0.061
13.678,0.055
13.680,0.044
13.682,0.029
13.684,0.014
13.686,0.000
13.688,-0.010
13.690,-0.017
13.692,-0.022
13.694,-0.026
13.696,-0.031
13.698,-0.037
13.700,-0.042
13.702,-0.046
13.704,-0.047
13.706,-0.047
13.708,-0.046
13.710,-0.045
13.712,-0.045
13.714,-0.047
13.716,-0.050
13.718,-0.052
13.720,-0.053
13.722,-0.053
13.724,-0.050
13.726,-0.046
13.728,-0.043
13.730,-0.041
13.732,-0.041
13.734,-0.042
13.736,-0.044
13.738,-0.045
13.740,-0.045
13.742,-0.043
13.744,-0.041
13.746,-0.039
13.748,-0.037
13.750,-0.035
13.752,-0.030
13.754,-0.020
13.756,-0.003
13.758,0.018
13.760,0.041
13.762,0.061
13.764,0.076
13.766,0.087
13.768,0.095
13.770,0.106
13.772,0.126
13.774,0.156
13.776,0.195
13.778,0.236
13.780,0.269
13.782,0.286
13.784,0.284
13.786,0.260
13.788,0.220
13.790,0.170
13.792,0.115
13.794,0.059
13.796,0.006
13.798,-0.042
13.800,-0.080
13.802,-0.105
13.804,-0.115
13.806,-0.111
13.808,-0.095
13.810,-0.073
13.812,-0.051
13.814,-0.034
13.816,-0.024
13.818,-0.021
13.820,-0.024
13.822,-0.029
13.824,-0.034
13.826,-0.037
13.828,-0.036
13.830,-0.033
13.832,-0.029
13.834,-0.027
13.836,-0.025
13.838,-0.025
13.840,-0.024
13.842,-0.023
13.844,-0.021
13.846,-0.018
13.848,-0.015
13.850,-0.014
13.852,-0.014
13.854,-0.017
13.856,-0.021
13.858,-0.025
13.860,-0.027
13.862,-0.028
13.864,-0.026
13.866,-0.022
13.868,-0.017
13.870,-0.012
13.872,-0.009
13.874,-0.007
13.876,-0.007
13.878,-0.008
13.880,-0.009
13.882,-0.009
13.884,-0.010
13.886,-0.011
13.888,-0.012
13.890,-0.013
13.892,-0.014
13.894,-0.014
13.896,-0.013
13.898,-0.010
13.900,-0.006
13.902,-0.001
13.904,0.003
13.906,0.006
13.908,0.007
13.910,0.007
13.912,0.006
13.914,0.005
13.916,0.006
13.918,0.007
13.920,0.008
13.922,0.009
13.924,0.010
13.926,0.011
13.928,0.014
13.930,0.017
13.932,0.020
13.934,0.023
13.936,0.026
13.938,0.027
13.940,0.028
13.942,0.030
13.944,0.033
13.946,0.037
13.948,0.041
13.950,0.045
13.952,0.047
13.954,0.048
13.956,0.047
13.958,0.045
13.960,0.044
13.962,0.044
13.964,0.046
13.966,0.051
13.968,0.057
13.970,0.065
13.972,0.074
13.974,0.082
13.976,0.090
13.978,0.095
13.980,0.098
13.982,0.098
13.984,0.096
13.986,0.093
13.988,0.092
13.990,0.093
13.992,0.098
13.994,0.106
13.996,0.115
13.998,0.125
14.000,0.133
14.002,0.139
14.004,0.142
14.006,0.142
14.008,0.141
14.010,0.140
14.012,0.139
14.014,0.139
14.016,0.140
14.018,0.141
14.020,0.141
14.022,0.140
14.024,0.137
14.026,0.133
14.028,0.129
14.030,0.125
14.032,0.121
14.034,0.117
14.036,0.112
14.038,0.105
14.040,0.098
14.042,0.091
14.044,0.084
14.046,0.078
14.048,0.072
14.050,0.065
14.052,0.057
14.054,0.047
14.056,0.035
14.058,0.025
14.060,0.017
14.062,0.013
14.064,0.012
14.066,0.011
14.068,0.010
14.070,0.005
14.072,-0.003
14.074,-0.013
14.076,-0.023
14.078,-0.030
14.080,-0.035
14.082,-0.038
14.084,-0.040
14.086,-0.043
14.088,-0.046
14.090,-0.049
14.092,-0.053
14.094,-0.055
14.096,-0.055
14.098,-0.055
14.100,-0.054
14.102,-0.053
14.104,-0.054
14.106,-0.055
14.108,-0.057
14.110,-0.059
14.112,-0.059
14.114,-0.058
14.116,-0.056
14.118,-0.054
14.120,-0.053
14.122,-0.055
14.124,-0.058
14.126,-0.062
14.128,-0.065
14.130,-0.065
14.132,-0.063
14.134,-0.060
14.136,-0.055
14.138,-0.050
14.140,-0.046
14.142,-0.043
14.144,-0.041
14.146,-0.040
14.148,-0.040
14.150,-0.040
14.152,-0.040
14.154,-0.040
14.156,-0.040
14.158,-0.041
14.160,-0.042
14.162,-0.043
14.164,-0.045
14.166,-0.046
14.168,-0.047
14.170,-0.046
14.172,-0.043
14.174,-0.040
14.176,-0.038
14.178,-0.036
14.180,-0.036
14.182,-0.036
14.184,-0.036
14.186,-0.035
14.188,-0.032
14.190,-0.030
14.192,-0.028
14.194,-0.027
14.196,-0.030
14.198,-0.033
14.200,-0.038
14.202,-0.042
14.204,-0.046
14.206,-0.048
14.208,-0.050
14.210,-0.052
14.212,-0.054
14.214,-0.057
14.216,-0.059
14.218,-0.061
14.220,-0.061
14.222,-0.060
14.224,-0.058
14.226,-0.055
14.228,-0.052
14.230,-0.049
14.232,-0.047
14.234,-0.045
14.236,-0.042
14.238,-0.036
14.240,-0.028
14.242,-0.018
14.244,-0.007
14.246,0.004
14.248,0.012
14.250,0.015
14.252,0.012
14.254,0.004
14.256,-0.006
14.258,-0.017
14.260,-0.025
14.262,-0.028
14.264,-0.024
14.266,-0.016
14.268,-0.005
14.270,0.007
14.272,0.017
14.274,0.026
14.276,0.031
14.278,0.034
14.280,0.033
14.282,0.028
14.284,0.020
14.286,0.010
14.288,-0.003
14.290,-0.016
14.292,-0.029
14.294,-0.040
14.296,-0.049
14.298,-0.058
14.300,-0.065
14.302,-0.072
14.304,-0.077
14.306,-0.080
14.308,-0.080
14.310,-0.076
14.312,-0.070
14.314,-0.064
14.316,-0.059
14.318,-0.056
14.320,-0.057
14.322,-0.062
14.324,-0.067
14.326,-0.072
14.328,-0.073
14.330,-0.072
14.332,-0.068
14.334,-0.063
14.336,-0.059
14.338,-0.059
14.340,-0.062
14.342,-0.067
14.344,-0.073
14.346,-0.079
14.348,-0.082
14.350,-0.080
14.352,-0.072
14.354,-0.058
14.356,-0.036
14.358,-0.010
14.360,0.017
14.362,0.042
14.364,0.060
14.366,0.070
14.368,0.074
14.370,0.075
14.372,0.080
14.374,0.094
14.376,0.119
14.378,0.156
14.380,0.196
14.382,0.233
14.384,0.256
14.386,0.260
14.388,0.243
14.390,0.208
14.392,0.161
14.394,0.106
14.396,0.048
14.398,-0.008
14.400,-0.060
14.402,-0.101
14.404,-0.128
14.406,-0.138
14.408,-0.132
14.410,-0.116
14.412,-0.096
14.414,-0.078
14.416,-0.066
14.418,-0.062
14.420,-0.061
14.422,-0.061
14.424,-0.060
14.426,-0.055
14.428,-0.050
14.430,-0.045
14.432,-0.043
14.434,-0.044
14.436,-0.049
14.438,-0.054
14.440,-0.060
14.442,-0.063
14.444,-0.064
14.446,-0.063
14.448,-0.061
14.450,-0.057
14.452,-0.053
14.454,-0.049
14.456,-0.045
14.458,-0.041
14.460,-0.038
14.462,-0.036
14.464,-0.035
14.466,-0.035
14.468,-0.036
14.470,-0.038
14.472,-0.039
14.474,-0.040
14.476,-0.041
14.478,-0.042
14.480,-0.043
14.482,-0.045
14.484,-0.046
14.486,-0.047
14.488,-0.045
14.490,-0.041
14.492,-0.034
14.494,-0.026
14.496,-0.019
14.498,-0.015
14.500,-0.014
14.502,-0.017
14.504,-0.021
14.506,-0.026
14.508,-0.030
14.510,-0.032
14.512,-0.030
14.514,-0.027
14.516,-0.023
14.518,-0.018
14.520,-0.015
14.522,-0.013
14.524,-0.012
14.526,-0.012
14.528,-0.013
14.530,-0.014
14.532,-0.015
14.534,-0.016
14.536,-0.016
14.538,-0.016
14.540,-0.013
14.542,-0.009
14.544,-0.003
14.546,0.005
14.548,0.011
14.550,0.016
14.552,0.019
14.554,0.018
14.556,0.017
14.558,0.015
14.560,0.014
14.562,0.015
14.564,0.018
14.566,0.022
14.568,0.027
14.570,0.031
14.572,0.036
14.574,0.041
14.576,0.047
14.578,0.054
14.580,0.063
14.582,0.072
14.584,0.080
14.586,0.087
14.588,0.091
14.590,0.092
14.592,0.091
14.594,0.089
14.596,0.088
14.598,0.090
14.600,0.094
14.602,0.101
14.604,0.107
14.606,0.113
14.608,0.116
14.610,0.117
14.612,0.117
14.614,0.118
14.616,0.120
14.618,0.122
14.620,0.123
14.622,0.122
14.624,0.120
14.626,0.118
14.628,0.115
14.630,0.113
14.632,0.111
14.634,0.108
14.636,0.103
14.638,0.096
14.640,0.088
14.642,0.079
14.644,0.072
14.646,0.067
14.648,0.063
14.650,0.060
14.652,0.055
14.654,0.048
14.656,0.039
14.658,0.027
14.660,0.014
14.662,0.002
14.664,-0.008
14.666,-0.016
14.668,-0.021
14.670,-0.024
14.672,-0.026
14.674,-0.029
14.676,-0.033
14.678,-0.036
14.680,-0.040
14.682,-0.043
14.684,-0.047
14.686,-0.050
14.688,-0.053
14.690,-0.057
14.692,-0.060
14.694,-0.063
14.696,-0.066
14.698,-0.069
14.700,-0.072
14.702,-0.073
14.704,-0.074
14.706,-0.073
14.708,-0.072
14.710,-0.070
14.712,-0.067
14.714,-0.064
14.716,-0.061
14.718,-0.057
14.720,-0.055
14.722,-0.055
14.724,-0.057
14.726,-0.062
14.728,-0.067
14.730,-0.072
14.732,-0.074
14.734,-0.073
14.736,-0.068
14.738,-0.063
14.740,-0.058
14.742,-0.055
14.744,-0.055
14.746,-0.056
14.748,-0.057
14.750,-0.057
14.752,-0.055
14.754,-0.050
14.756,-0.043
14.758,-0.038
14.760,-0.033
14.762,-0.032
14.764,-0.034
14.766,-0.037
14.768,-0.040
14.770,-0.043
14.772,-0.045
14.774,-0.046
14.776,-0.047
14.778,-0.048
14.780,-0.049
14.782,-0.050
14.784,-0.050
14.786,-0.048
14.788,-0.046
14.790,-0.044
14.792,-0.043
14.794,-0.043
14.796,-0.043
14.798,-0.043
14.800,-0.042
14.802,-0.041
14.804,-0.039
14.806,-0.036
14.808,-0.034
14.810,-0.033
14.812,-0.033
14.814,-0.035
14.816,-0.038
14.818,-0.042
14.820,-0.047
14.822,-0.051
14.824,-0.055
14.826,-0.059
14.828,-0.061
14.830,-0.062
14.832,-0.062
14.834,-0.060
14.836,-0.058
14.838,-0.056
14.840,-0.055
14.842,-0.055
14.844,-0.056
14.846,-0.057
14.848,-0.058
14.850,-0.058
14.852,-0.058
14.854,-0.058
14.856,-0.058
14.858,-0.058
14.860,-0.056
14.862,-0.054
14.864,-0.051
14.866,-0.047
14.868,-0.044
14.870,-0.041
14.872,-0.039
14.874,-0.039
14.876,-0.039
14.878,-0.038
14.880,-0.036
14.882,-0.030
14.884,-0.021
14.886,-0.011
14.888,-0.003
14.890,0.000
14.892,-0.003
14.894,-0.012
14.896,-0.022
14.898,-0.028
14.900,-0.028
14.902,-0.019
14.904,-0.004
14.906,0.012
14.908,0.025
14.910,0.034
14.912,0.038
14.914,0.039
14.916,0.039
14.918,0.039
14.920,0.036
14.922,0.030
14.924,0.018
14.926,0.003
14.928,-0.015
14.930,-0.032
14.932,-0.046
14.934,-0.055
14.936,-0.061
14.938,-0.063
14.940,-0.064
14.942,-0.064
14.944,-0.062
14.946,-0.059
14.948,-0.055
14.950,-0.051
14.952,-0.050
14.954,-0.051
14.956,-0.056
14.958,-0.063
14.960,-0.068
14.962,-0.071
14.964,-0.070
14.966,-0.065
14.968,-0.058
14.970,-0.053
14.972,-0.051
14.974,-0.053
14.976,-0.059
14.978,-0.067
14.980,-0.077
14.982,-0.084
14.984,-0.089
14.986,-0.087
14.988,-0.079
14.990,-0.061
14.992,-0.035
14.994,-0.003
14.996,0.032
14.998,0.063
15.000,0.087
15.002,0.100
15.004,0.105
15.006,0.108
15.008,0.115
15.010,0.133
15.012,0.164
15.014,0.207
15.016,0.252
15.018,0.290
15.020,0.311
15.022,0.310
15.024,0.286
15.026,0.243
15.028,0.188
15.030,0.127
15.032,0.066
15.034,0.009
15.036,-0.039
15.038,-0.075
15.040,-0.097
15.042,-0.102
15.044,-0.095
15.046,-0.078
15.048,-0.060
15.050,-0.044
15.052,-0.035
15.054,-0.032
15.056,-0.032
15.058,-0.035
15.060,-0.037
15.062,-0.037
15.064,-0.036
15.066,-0.036
15.068,-0.036
15.070,-0.039
15.072,-0.043
15.074,-0.050
15.076,-0.058
15.078,-0.064
15.080,-0.069
15.082,-0.070
15.084,-0.068
15.086,-0.063
15.088,-0.057
15.090,-0.051
15.092,-0.047
15.094,-0.044
15.096,-0.042
15.098,-0.040
15.100,-0.039
15.102,-0.038
15.104,-0.036
15.106,-0.035
15.108,-0.034
15.110,-0.034
15.112,-0.035
15.114,-0.036
15.116,-0.036
15.118,-0.035
15.120,-0.033
15.122,-0.030
15.124,-0.025
15.126,-0.022
15.128,-0.021
15.130,-0.022
15.132,-0.026
15.134,-0.030
15.136,-0.034
15.138,-0.037
15.140,-0.037
15.142,-0.036
15.144,-0.032
15.146,-0.027
15.148,-0.021
15.150,-0.015
15.152,-0.007
15.154,-0.001
15.156,0.004
15.158,0.007
15.160,0.007
15.162,0.005
15.164,0.002
15.166,-0.001
15.168,-0.003
15.170,-0.003
15.172,-0.002
15.174,0.000
15.176,0.002
15.178,0.003
15.180,0.004
15.182,0.005
15.184,0.006
15.186,0.008
15.188,0.011
15.190,0.014
15.192,0.017
15.194,0.020
15.196,0.024
15.198,0.028
15.200,0.033
15.202,0.039
15.204,0.046
15.206,0.053
15.208,0.061
15.210,0.068
15.212,0.073
15.214,0.075
15.216,0.076
15.218,0.076
15.220,0.077
15.222,0.079
15.224,0.084
15.226,0.092
15.228,0.100
15.230,0.108
15.232,0.114
15.234,0.117
15.236,0.119
15.238,0.120
15.240,0.121
15.242,0.122
15.244,0.124
15.246,0.126
15.248,0.127
15.250,0.128
15.252,0.128
15.254,0.130
15.256,0.133
15.258,0.137
15.260,0.142
15.262,0.145
15.264,0.144
15.266,0.138
15.268,0.130
15.270,0.120
15.272,0.112
15.274,0.106
15.276,0.102
15.278,0.100
15.280,0.095
15.282,0.088
15.284,0.078
15.286,0.067
15.288,0.056
15.290,0.048
15.292,0.043
15.294,0.041
15.296,0.040
15.298,0.037
15.300,0.031
15.302,0.021
15.304,0.009
15.306,-0.002
15.308,-0.012
15.310,-0.019
15.312,-0.023
15.314,-0.026
15.316,-0.029
15.318,-0.033
15.320,-0.037
15.322,-0.039
15.324,-0.038
15.326,-0.034
15.328,-0.028
15.330,-0.022
15.332,-0.019
15.334,-0.020
15.336,-0.026
15.338,-0.035
15.340,-0.044
15.342,-0.051
15.344,-0.057
15.346,-0.060
15.348,-0.062
15.350,-0.063
15.352,-0.063
15.354,-0.063
15.356,-0.061
15.358,-0.059
15.360,-0.057
15.362,-0.054
15.364,-0.053
15.366,-0.053
15.368,-0.053
15.370,-0.053
15.372,-0.053
15.374,-0.051
15.376,-0.048
15.378,-0.046
15.380,-0.044
15.382,-0.043
15.384,-0.043
15.386,-0.045
15.388,-0.048
15.390,-0.051
15.392,-0.054
15.394,-0.056
15.396,-0.056
15.398,-0.054
15.400,-0.050
15.402,-0.044
15.404,-0.037
15.406,-0.031
15.408,-0.028
15.410,-0.028
15.412,-0.032
15.414,-0.039
15.416,-0.045
15.418,-0.050
15.420,-0.051
15.422,-0.050
15.424,-0.047
15.426,-0.042
15.428,-0.038
15.430,-0.034
15.432,-0.032
15.434,-0.031
15.436,-0.031
15.438,-0.032
15.440,-0.033
15.442,-0.034
15.444,-0.033
15.446,-0.033
15.448,-0.032
15.450,-0.032
15.452,-0.034
15.454,-0.037
15.456,-0.042
15.458,-0.046
15.460,-0.050
15.462,-0.052
15.464,-0.053
15.466,-0.051
15.468,-0.048
15.470,-0.044
15.472,-0.040
15.474,-0.037
15.476,-0.036
15.478,-0.036
15.480,-0.039
15.482,-0.042
15.484,-0.045
15.486,-0.046
15.488,-0.045
15.490,-0.043
15.492,-0.041
15.494,-0.040
15.496,-0.041
15.498,-0.044
15.500,-0.048
15.502,-0.051
15.504,-0.053
15.506,-0.053
15.508,-0.052
15.510,-0.051
15.512,-0.051
15.514,-0.050
15.516,-0.048
15.518,-0.046
15.520,-0.042
15.522,-0.039
15.524,-0.035
15.526,-0.032
15.528,-0.029
15.530,-0.026
15.532,-0.022
15.534,-0.015
15.536,-0.006
15.538,0.003
15.540,0.011
15.542,0.014
15.544,0.010
15.546,0.001
15.548,-0.011
15.550,-0.021
15.552,-0.026
15.554,-0.022
15.556,-0.010
15.558,0.006
15.560,0.023
15.562,0.037
15.564,0.045
15.566,0.047
15.568,0.043
15.570,0.034
15.572,0.022
15.574,0.009
15.576,-0.004
15.578,-0.015
15.580,-0.024
15.582,-0.032
15.584,-0.038
15.586,-0.043
15.588,-0.046
15.590,-0.048
15.592,-0.049
15.594,-0.048
15.596,-0.046
15.598,-0.044
15.600,-0.043
15.602,-0.045
15.604,-0.049
15.606,-0.054
15.608,-0.059
15.610,-0.064
15.612,-0.066
15.614,-0.067
15.616,-0.065
15.618,-0.063
15.620,-0.061
15.622,-0.059
15.624,-0.057
15.626,-0.056
15.628,-0.056
15.630,-0.055
15.632,-0.056
15.634,-0.057
15.636,-0.058
15.638,-0.057
15.640,-0.053
15.642,-0.043
15.644,-0.028
15.646,-0.007
15.648,0.016
15.650,0.039
15.652,0.059
15.654,0.076
15.656,0.089
15.658,0.102
15.660,0.117
15.662,0.140
15.664,0.171
15.666,0.210
15.668,0.252
15.670,0.289
15.672,0.313
15.674,0.316
15.676,0.298
15.678,0.259
15.680,0.207
15.682,0.148
15.684,0.089
15.686,0.034
15.688,-0.012
15.690,-0.047
15.692,-0.070
15.694,-0.079
15.696,-0.076
15.698,-0.067
15.700,-0.055
15.702,-0.045
15.704,-0.038
15.706,-0.036
15.708,-0.037
15.710,-0.038
15.712,-0.040
15.714,-0.041
15.716,-0.040
15.718,-0.038
15.720,-0.036
15.722,-0.033
15.724,-0.030
15.726,-0.030
15.728,-0.031
15.730,-0.035
15.732,-0.038
15.734,-0.039
15.736,-0.038
15.738,-0.033
15.740,-0.028
15.742,-0.022
15.744,-0.020
15.746,-0.019
15.748,-0.021
15.750,-0.024
15.752,-0.025
15.754,-0.025
15.756,-0.024
15.758,-0.023
15.760,-0.023
15.762,-0.024
15.764,-0.027
15.766,-0.029
15.768,-0.030
15.770,-0.028
15.772,-0.024
15.774,-0.018
15.776,-0.013
15.778,-0.010
15.780,-0.009
15.782,-0.009
15.784,-0.010
15.786,-0.011
15.788,-0.011
15.790,-0.010
15.792,-0.008
15.794,-0.007
15.796,-0.004
15.798,-0.002
15.800,0.002
15.802,0.007
15.804,0.012
15.806,0.016
15.808,0.018
15.810,0.017
15.812,0.013
15.814,0.007
15.816,0.001
15.818,-0.001
15.820,0.001
15.822,0.007
15.824,0.014
15.826,0.021
15.828,0.024
15.830,0.024
15.832,0.022
15.834,0.021
15.836,0.022
15.838,0.025
15.840,0.031
15.842,0.036
15.844,0.039
15.846,0.040
15.848,0.040
15.850,0.040
15.852,0.041
15.854,0.043
15.856,0.048
15.858,0.052
15.860,0.056
15.862,0.060
15.864,0.064
15.866,0.068
15.868,0.073
15.870,0.078
15.872,0.082
15.874,0.085
15.876,0.087
15.878,0.089
15.880,0.093
15.882,0.099
15.884,0.109
15.886,0.122
15.888,0.135
15.890,0.146
15.892,0.154
15.894,0.156
15.896,0.155
15.898,0.150
15.900,0.144
15.902,0.139
15.904,0.135
15.906,0.133
15.908,0.133
15.910,0.135
15.912,0.139
15.914,0.144
15.916,0.150
15.918,0.155
15.920,0.157
15.922,0.155
15.924,0.148
15.926,0.137
15.928,0.125
15.930,0.113
15.932,0.102
15.934,0.092
15.936,0.083
15.938,0.075
15.940,0.068
15.942,0.062
15.944,0.057
15.946,0.053
15.948,0.049
15.950,0.043
15.952,0.036
15.954,0.026
15.956,0.015
15.958,0.004
15.960,-0.006
15.962,-0.015
15.964,-0.021
15.966,-0.024
15.968,-0.026
15.970,-0.026
15.972,-0.027
15.974,-0.027
15.976,-0.029
15.978,-0.032
15.980,-0.035
15.982,-0.038
15.984,-0.042
15.986,-0.045
15.988,-0.049
15.990,-0.051
15.992,-0.053
15.994,-0.053
15.996,-0.052
15.998,-0.051
16.000,-0.050
16.002,-0.050
16.004,-0.051
16.006,-0.053
16.008,-0.054
16.010,-0.054
16.012,-0.054
16.014,-0.053
16.016,-0.053
16.018,-0.053
16.020,-0.055
16.022,-0.057
16.024,-0.058
16.026,-0.060
16.028,-0.060
16.030,-0.059
16.032,-0.057
16.034,-0.054
16.036,-0.049
16.038,-0.044
16.040,-0.040
16.042,-0.037
16.044,-0.036
16.046,-0.037
16.048,-0.039
16.050,-0.040
16.052,-0.041
16.054,-0.041
16.056,-0.040
16.058,-0.039
16.060,-0.038
16.062,-0.037
16.064,-0.035
16.066,-0.033
16.068,-0.031
16.070,-0.031
16.072,-0.031
16.074,-0.032
16.076,-0.034
16.078,-0.034
16.080,-0.034
16.082,-0.033
16.084,-0.031
16.086,-0.029
16.088,-0.029
16.090,-0.029
16.092,-0.030
16.094,-0.030
16.096,-0.030
16.098,-0.029
16.100,-0.029
16.102,-0.030
16.104,-0.031
16.106,-0.033
16.108,-0.034
16.110,-0.035
16.112,-0.035
16.114,-0.033
16.116,-0.033
16.118,-0.033
16.120,-0.036
16.122,-0.039
16.124,-0.044
16.126,-0.048
16.128,-0.050
16.130,-0.051
16.132,-0.050
16.134,-0.048
16.136,-0.046
16.138,-0.045
16.140,-0.044
16.142,-0.043
16.144,-0.042
16.146,-0.038
16.148,-0.033
16.150,-0.026
16.152,-0.018
16.154,-0.011
16.156,-0.003
16.158,0.004
16.160,0.010
16.162,0.016
16.164,0.020
16.166,0.021
16.168,0.019
16.170,0.012
16.172,0.003
16.174,-0.005
16.176,-0.011
16.178,-0.012
16.180,-0.007
16.182,0.002
16.184,0.015
16.186,0.030
16.188,0.043
16.190,0.051
16.192,0.054
16.194,0.050
16.196,0.042
16.198,0.032
16.200,0.020
16.202,0.010
16.204,-0.000
16.206,-0.009
16.208,-0.018
16.210,-0.027
16.212,-0.035
16.214,-0.041
16.216,-0.044
16.218,-0.045
16.220,-0.045
16.222,-0.044
16.224,-0.044
16.226,-0.045
16.228,-0.048
16.230,-0.052
16.232,-0.056
16.234,-0.059
16.236,-0.061
16.238,-0.061
16.240,-0.060
16.242,-0.056
16.244,-0.050
16.246,-0.043
16.248,-0.036
16.250,-0.030
16.252,-0.027
16.254,-0.028
16.256,-0.032
16.258,-0.039
16.260,-0.048
16.262,-0.056
16.264,-0.060
16.266,-0.060
16.268,-0.053
16.270,-0.039
16.272,-0.020
16.274,0.003
16.276,0.025
16.278,0.046
16.280,0.063
16.282,0.075
16.284,0.086
16.286,0.097
16.288,0.114
16.290,0.138
16.292,0.172
16.294,0.211
16.296,0.248
16.298,0.276
16.300,0.286
16.302,0.275
16.304,0.243
16.306,0.196
16.308,0.139
16.310,0.078
16.312,0.021
16.314,-0.031
16.316,-0.072
16.318,-0.101
16.320,-0.116
16.322,-0.115
16.324,-0.102
16.326,-0.082
16.328,-0.059
16.330,-0.039
16.332,-0.026
16.334,-0.020
16.336,-0.019
16.338,-0.022
16.340,-0.024
16.342,-0.025
16.344,-0.023
16.346,-0.021
16.348,-0.018
16.350,-0.017
16.352,-0.019
16.354,-0.023
16.356,-0.027
16.358,-0.031
16.360,-0.033
16.362,-0.032
16.364,-0.029
16.366,-0.025
16.368,-0.021
16.370,-0.019
16.372,-0.019
16.374,-0.020
16.376,-0.021
16.378,-0.022
16.380,-0.023
16.382,-0.024
16.384,-0.025
16.386,-0.025
16.388,-0.025
16.390,-0.025
16.392,-0.024
16.394,-0.022
16.396,-0.020
16.398,-0.018
16.400,-0.018
16.402,-0.019
16.404,-0.021
16.406,-0.023
16.408,-0.024
16.410,-0.023
16.412,-0.020
16.414,-0.014
16.416,-0.008
16.418,-0.001
16.420,0.003
16.422,0.006
16.424,0.008
16.426,0.008
16.428,0.007
16.430,0.006
16.432,0.005
16.434,0.003
16.436,0.003
16.438,0.003
16.440,0.005
16.442,0.008
16.444,0.013
16.446,0.020
16.448,0.026
16.450,0.031
16.452,0.032
16.454,0.030
16.456,0.025
16.458,0.019
16.460,0.013
16.462,0.010
16.464,0.011
16.466,0.016
16.468,0.022
16.470,0.029
16.472,0.035
16.474,0.041
16.476,0.048
16.478,0.055
16.480,0.063
16.482,0.070
16.484,0.076
16.486,0.078
16.488,0.078
16.490,0.076
16.492,0.074
16.494,0.073
16.496,0.075
16.498,0.079
16.500,0.084
16.502,0.090
16.504,0.096
16.506,0.103
16.508,0.110
16.510,0.115
16.512,0.120
16.514,0.122
16.516,0.123
16.518,0.123
16.520,0.123
16.522,0.124
16.524,0.126
16.526,0.128
16.528,0.131
16.530,0.135
16.532,0.137
16.534,0.139
16.536,0.139
16.538,0.138
16.540,0.137
16.542,0.133
16.544,0.129
16.546,0.124
16.548,0.118
16.550,0.113
16.552,0.109
16.554,0.106
16.556,0.104
16.558,0.101
16.560,0.096
16.562,0.089
16.564,0.079
16.566,0.068
16.568,0.057
16.570,0.047
16.572,0.038
16.574,0.031
16.576,0.023
16.578,0.016
16.580,0.010
16.582,0.004
16.584,-0.002
16.586,-0.008
16.588,-0.016
16.590,-0.025
16.592,-0.034
16.594,-0.044
16.596,-0.051
16.598,-0.055
16.600,-0.056
16.602,-0.056
16.604,-0.055
16.606,-0.055
16.608,-0.056
16.610,-0.057
16.612,-0.058
16.614,-0.057
16.616,-0.055
16.618,-0.052
16.620,-0.050
16.622,-0.051
16.624,-0.054
16.626,-0.059
16.628,-0.064
16.630,-0.067
16.632,-0.068
16.634,-0.067
16.636,-0.066
16.638,-0.064
16.640,-0.063
16.642,-0.063
16.644,-0.063
16.646,-0.062
16.648,-0.060
16.650,-0.057
16.652,-0.054
16.654,-0.052
16.656,-0.052
16.658,-0.053
16.660,-0.055
16.662,-0.055
16.664,-0.054
16.666,-0.050
16.668,-0.044
16.670,-0.037
16.672,-0.030
16.674,-0.027
16.676,-0.026
16.678,-0.029
16.680,-0.034
16.682,-0.040
16.684,-0.045
16.686,-0.048
16.688,-0.049
16.690,-0.047
16.692,-0.045
16.694,-0.044
16.696,-0.042
16.698,-0.042
16.700,-0.042
16.702,-0.042
16.704,-0.043
16.706,-0.044
16.708,-0.045
16.710,-0.047
16.712,-0.049
16.714,-0.049
16.716,-0.048
16.718,-0.046
16.720,-0.044
16.722,-0.042
16.724,-0.042
16.726,-0.043
16.728,-0.044
16.730,-0.046
16.732,-0.047
16.734,-0.048
16.736,-0.048
16.738,-0.047
16.740,-0.045
16.742,-0.042
16.744,-0.040
16.746,-0.038
16.748,-0.037
16.750,-0.039
16.752,-0.042
16.754,-0.046
16.756,-0.049
16.758,-0.052
16.760,-0.053
16.762,-0.052
16.764,-0.051
16.766,-0.049
16.768,-0.047
16.770,-0.044
16.772,-0.040
16.774,-0.035
16.776,-0.029
16.778,-0.023
16.780,-0.018
16.782,-0.014
16.784,-0.012
16.786,-0.010
16.788,-0.010
16.790,-0.011
16.792,-0.014
16.794,-0.019
16.796,-0.022
16.798,-0.023
16.800,-0.019
16.802,-0.010
16.804,0.002
16.806,0.014
16.808,0.025
16.810,0.031
16.812,0.032
16.814,0.029
16.816,0.023
16.818,0.014
16.820,0.005
16.822,-0.006
16.824,-0.017
16.826,-0.028
16.828,-0.037
16.830,-0.045
16.832,-0.051
16.834,-0.055
16.836,-0.058
16.838,-0.060
16.840,-0.062
16.842,-0.062
16.844,-0.060
16.846,-0.056
16.848,-0.052
16.850,-0.051
16.852,-0.053
16.854,-0.058
16.856,-0.065
16.858,-0.070
16.860,-0.069
16.862,-0.063
16.864,-0.054
16.866,-0.044
16.868,-0.037
16.870,-0.036
16.872,-0.039
16.874,-0.043
16.876,-0.048
16.878,-0.052
16.880,-0.054
16.882,-0.056
16.884,-0.058
16.886,-0.057
16.888,-0.052
16.890,-0.039
16.892,-0.018
16.894,0.011
16.896,0.042
16.898,0.070
16.900,0.090
16.902,0.100
16.904,0.104
16.906,0.107
16.908,0.119
16.910,0.142
16.912,0.177
16.914,0.218
16.916,0.255
16.918,0.278
16.920,0.282
16.922,0.266
16.924,0.233
16.926,0.189
16.928,0.140
16.930,0.087
16.932,0.035
16.934,-0.014
16.936,-0.057
16.938,-0.089
16.940,-0.107
16.942,-0.109
16.944,-0.097
16.946,-0.079
16.948,-0.059
16.950,-0.045
16.952,-0.037
16.954,-0.036
16.956,-0.037
16.958,-0.038
16.960,-0.038
16.962,-0.038
16.964,-0.039
16.966,-0.042
16.968,-0.046
16.970,-0.051
16.972,-0.055
16.974,-0.057
16.976,-0.057
16.978,-0.055
16.980,-0.054
16.982,-0.052
16.984,-0.050
16.986,-0.047
16.988,-0.043
16.990,-0.039
16.992,-0.035
16.994,-0.033
16.996,-0.032
16.998,-0.032
17.000,-0.033
17.002,-0.034
17.004,-0.033
17.006,-0.030
17.008,-0.028
17.010,-0.025
17.012,-0.023
17.014,-0.022
17.016,-0.021
17.018,-0.020
17.020,-0.019
17.022,-0.018
17.024,-0.016
17.026,-0.016
17.028,-0.016
17.030,-0.017
17.032,-0.019
17.034,-0.021
17.036,-0.023
17.038,-0.023
17.040,-0.020
17.042,-0.015
17.044,-0.009
17.046,-0.003
17.048,0.000
17.050,0.001
17.052,-0.002
17.054,-0.006
17.056,-0.011
17.058,-0.014
17.060,-0.015
17.062,-0.013
17.064,-0.011
17.066,-0.008
17.068,-0.006
17.070,-0.004
17.072,-0.004
17.074,-0.004
17.076,-0.003
17.078,-0.002
17.080,0.001
17.082,0.006
17.084,0.012
17.086,0.018
17.088,0.023
17.090,0.029
17.092,0.034
17.094,0.039
17.096,0.045
17.098,0.051
17.100,0.055
17.102,0.058
17.104,0.059
17.106,0.059
17.108,0.059
17.110,0.060
17.112,0.063
17.114,0.068
17.116,0.075
17.118,0.082
17.120,0.088
17.122,0.093
17.124,0.097
17.126,0.102
17.128,0.106
17.130,0.109
17.132,0.112
17.134,0.113
17.136,0.112
17.138,0.110
17.140,0.108
17.142,0.107
17.144,0.108
17.146,0.111
17.148,0.115
17.150,0.119
17.152,0.123
17.154,0.125
17.156,0.126
17.158,0.126
17.160,0.125
17.162,0.124
17.164,0.123
17.166,0.122
17.168,0.120
17.170,0.118
17.172,0.114
17.174,0.109
17.176,0.102
17.178,0.093
17.180,0.083
17.182,0.072
17.184,0.061
17.186,0.053
17.188,0.047
17.190,0.044
17.192,0.040
17.194,0.036
17.196,0.030
17.198,0.023
17.200,0.015
17.202,0.008
17.204,0.000
17.206,-0.007
17.208,-0.015
17.210,-0.022
17.212,-0.027
17.214,-0.030
17.216,-0.029
17.218,-0.028
17.220,-0.028
17.222,-0.031
17.224,-0.038
17.226,-0.047
17.228,-0.058
17.230,-0.066
17.232,-0.071
17.234,-0.074
17.236,-0.074
17.238,-0.073
17.240,-0.071
17.242,-0.070
17.244,-0.068
17.246,-0.066
17.248,-0.064
17.250,-0.061
17.252,-0.059
17.254,-0.058
17.256,-0.058
17.258,-0.058
17.260,-0.059
17.262,-0.060
17.264,-0.060
17.266,-0.060
17.268,-0.059
17.270,-0.058
17.272,-0.056
17.274,-0.053
17.276,-0.050
17.278,-0.046
17.280,-0.041
17.282,-0.037
17.284,-0.034
17.286,-0.032
17.288,-0.032
17.290,-0.032
17.292,-0.033
17.294,-0.034
17.296,-0.033
17.298,-0.032
17.300,-0.030
17.302,-0.028
17.304,-0.027
17.306,-0.027
17.308,-0.028
17.310,-0.029
17.312,-0.030
17.314,-0.030
17.316,-0.030
17.318,-0.030
17.320,-0.029
17.322,-0.028
17.324,-0.027
17.326,-0.026
17.328,-0.025
17.330,-0.024
17.332,-0.026
17.334,-0.028
17.336,-0.030
17.338,-0.033
17.340,-0.033
17.342,-0.032
17.344,-0.031
17.346,-0.030
17.348,-0.030
17.350,-0.032
17.352,-0.034
17.354,-0.036
17.356,-0.038
17.358,-0.039
17.360,-0.039
17.362,-0.039
17.364,-0.038
17.366,-0.036
17.368,-0.033
17.370,-0.029
17.372,-0.024
17.374,-0.021
17.376,-0.018
17.378,-0.017
17.380,-0.017
17.382,-0.017
17.384,-0.018
17.386,-0.017
17.388,-0.014
17.390,-0.009
17.392,-0.004
17.394,0.002
17.396,0.008
17.398,0.012
17.400,0.014
17.402,0.015
17.404,0.013
17.406,0.009
17.408,0.004
17.410,-0.002
17.412,-0.008
17.414,-0.010
17.416,-0.009
17.418,-0.003
17.420,0.008
17.422,0.020
17.424,0.033
17.426,0.044
17.428,0.051
17.430,0.052
17.432,0.048
17.434,0.039
17.436,0.026
17.438,0.010
17.440,-0.005
17.442,-0.019
17.444,-0.030
17.446,-0.037
17.448,-0.041
17.450,-0.043
17.452,-0.044
17.454,-0.046
17.456,-0.048
17.458,-0.050
17.460,-0.050
17.462,-0.049
17.464,-0.048
17.466,-0.046
17.468,-0.046
17.470,-0.048
17.472,-0.051
17.474,-0.056
17.476,-0.059
17.478,-0.059
17.480,-0.057
17.482,-0.053
17.484,-0.049
17.486,-0.046
17.488,-0.045
17.490,-0.047
17.492,-0.050
17.494,-0.053
17.496,-0.055
17.498,-0.057
17.500,-0.056
17.502,-0.053
17.504,-0.046
17.506,-0.035
17.508,-0.019
17.510,0.002
17.512,0.026
17.514,0.051
17.516,0.073
17.518,0.090
17.520,0.103
17.522,0.114
17.524,0.129
17.526,0.153
17.528,0.187
17.530,0.230
17.532,0.277
17.534,0.316
17.536,0.339
17.538,0.340
17.540,0.316
17.542,0.272
17.544,0.212
17.546,0.146
17.548,0.081
17.550,0.021
17.552,-0.030
17.554,-0.068
17.556,-0.091
17.558,-0.100
17.560,-0.096
17.562,-0.082
17.564,-0.064
17.566,-0.048
17.568,-0.037
17.570,-0.033
17.572,-0.035
17.574,-0.040
17.576,-0.046
17.578,-0.050
17.580,-0.049
17.582,-0.045
17.584,-0.039
17.586,-0.034
17.588,-0.033
17.590,-0.035
17.592,-0.040
17.594,-0.044
17.596,-0.045
17.598,-0.044
17.600,-0.041
17.602,-0.038
17.604,-0.037
17.606,-0.037
17.608,-0.039
17.610,-0.041
17.612,-0.041
17.614,-0.040
17.616,-0.038
17.618,-0.035
17.620,-0.032
17.622,-0.028
17.624,-0.025
17.626,-0.022
17.628,-0.021
17.630,-0.022
17.632,-0.024
17.634,-0.028
17.636,-0.030
17.638,-0.031
17.640,-0.030
17.642,-0.027
17.644,-0.023
17.646,-0.020
17.648,-0.019
17.650,-0.020
17.652,-0.022
17.654,-0.024
17.656,-0.025
17.658,-0.023
17.660,-0.020
17.662,-0.015
17.664,-0.010
17.666,-0.006
17.668,-0.004
17.670,-0.003
17.672,-0.005
17.674,-0.007
17.676,-0.008
17.678,-0.007
17.680,-0.005
17.682,-0.002
17.684,0.002
17.686,0.007
17.688,0.013
17.690,0.020
17.692,0.027
17.694,0.031
17.696,0.031
17.698,0.027
17.700,0.021
17.702,0.014
17.704,0.008
17.706,0.006
17.708,0.008
17.710,0.012
17.712,0.018
17.714,0.023
17.716,0.029
17.718,0.033
17.720,0.038
17.722,0.043
17.724,0.048
17.726,0.053
17.728,0.058
17.730,0.063
17.732,0.068
17.734,0.073
17.736,0.079
17.738,0.085
17.740,0.090
17.742,0.094
17.744,0.096
17.746,0.097
17.748,0.097
17.750,0.099
17.752,0.103
17.754,0.109
17.756,0.117
17.758,0.124
17.760,0.129
17.762,0.131
17.764,0.131
17.766,0.129
17.768,0.127
17.770,0.125
17.772,0.123
17.774,0.121
17.776,0.119
17.778,0.117
17.780,0.114
17.782,0.113
17.784,0.112
17.786,0.113
17.788,0.114
17.790,0.114
17.792,0.111
17.794,0.106
17.796,0.098
17.798,0.088
17.800,0.076
17.802,0.063
17.804,0.049
17.806,0.036
17.808,0.022
17.810,0.010
17.812,0.001
17.814,-0.007
17.816,-0.012
17.818,-0.015
17.820,-0.019
17.822,-0.022
17.824,-0.025
17.826,-0.028
17.828,-0.031
17.830,-0.033
17.832,-0.036
17.834,-0.041
17.836,-0.047
17.838,-0.054
17.840,-0.061
17.842,-0.065
17.844,-0.066
17.846,-0.065
17.848,-0.063
17.850,-0.061
17.852,-0.061
17.854,-0.063
17.856,-0.065
17.858,-0.067
17.860,-0.068
17.862,-0.068
17.864,-0.068
17.866,-0.069
17.868,-0.071
17.870,-0.073
17.872,-0.074
17.874,-0.074
17.876,-0.073
17.878,-0.069
17.880,-0.064
17.882,-0.058
17.884,-0.052
17.886,-0.048
17.888,-0.046
17.890,-0.047
17.892,-0.050
17.894,-0.056
17.896,-0.061
17.898,-0.066
17.900,-0.068
17.902,-0.068
17.904,-0.066
17.906,-0.063
17.908,-0.060
17.910,-0.058
17.912,-0.055
17.914,-0.053
17.916,-0.052
17.918,-0.052
17.920,-0.055
17.922,-0.058
17.924,-0.062
17.926,-0.065
17.928,-0.066
17.930,-0.064
17.932,-0.061
17.934,-0.058
17.936,-0.056
17.938,-0.054
17.940,-0.054
17.942,-0.053
17.944,-0.051
17.946,-0.050
17.948,-0.049
17.950,-0.050
17.952,-0.051
17.954,-0.053
17.956,-0.054
17.958,-0.055
17.960,-0.055
17.962,-0.055
17.964,-0.056
17.966,-0.058
17.968,-0.060
17.970,-0.061
17.972,-0.062
17.974,-0.062
17.976,-0.061
17.978,-0.060
17.980,-0.060
17.982,-0.062
17.984,-0.066
17.986,-0.070
17.988,-0.073
17.990,-0.074
17.992,-0.072
17.994,-0.067
17.996,-0.060
17.998,-0.053
18.000,-0.048
18.002,-0.046
18.004,-0.047
18.006,-0.049
18.008,-0.051
18.010,-0.051
18.012,-0.047
18.014,-0.041
18.016,-0.034
18.018,-0.026
18.020,-0.021
18.022,-0.019
18.024,-0.019
18.026,-0.020
18.028,-0.021
18.030,-0.022
18.032,-0.021
18.034,-0.020
18.036,-0.017
18.038,-0.011
18.040,-0.004
18.042,0.006
18.044,0.017
18.046,0.027
18.048,0.033
18.050,0.033
18.052,0.026
18.054,0.014
18.056,-0.001
18.058,-0.016
18.060,-0.029
18.062,-0.039
18.064,-0.046
18.066,-0.052
18.068,-0.057
18.070,-0.063
18.072,-0.069
18.074,-0.074
18.076,-0.075
18.078,-0.074
18.080,-0.069
18.082,-0.065
18.084,-0.061
18.086,-0.061
18.088,-0.064
18.090,-0.070
18.092,-0.077
18.094,-0.083
18.096,-0.085
18.098,-0.083
18.100,-0.077
18.102,-0.070
18.104,-0.065
18.106,-0.062
18.108,-0.063
18.110,-0.068
18.112,-0.073
18.114,-0.076
18.116,-0.078
18.118,-0.076
18.120,-0.073
18.122,-0.066
18.124,-0.057
18.126,-0.042
18.128,-0.022
18.130,0.003
18.132,0.029
18.134,0.051
18.136,0.066
18.138,0.071
18.140,0.071
18.142,0.072
18.144,0.083
18.146,0.108
18.148,0.147
18.150,0.195
18.152,0.242
18.154,0.277
18.156,0.292
18.158,0.283
18.160,0.252
18.162,0.204
18.164,0.147
18.166,0.085
18.168,0.026
18.170,-0.028
18.172,-0.073
18.174,-0.105
18.176,-0.122
18.178,-0.123
18.180,-0.111
18.182,-0.091
18.184,-0.069
18.186,-0.050
18.188,-0.038
18.190,-0.034
18.192,-0.035
18.194,-0.039
18.196,-0.043
18.198,-0.045
18.200,-0.045
18.202,-0.046
18.204,-0.047
18.206,-0.050
18.208,-0.053
18.210,-0.057
18.212,-0.059
18.214,-0.058
18.216,-0.055
18.218,-0.049
18.220,-0.043
18.222,-0.039
18.224,-0.036
18.226,-0.035
18.228,-0.035
18.230,-0.035
18.232,-0.037
18.234,-0.039
18.236,-0.042
18.238,-0.047
18.240,-0.051
18.242,-0.055
18.244,-0.056
18.246,-0.056
18.248,-0.054
18.250,-0.052
18.252,-0.050
18.254,-0.047
18.256,-0.045
18.258,-0.041
18.260,-0.037
18.262,-0.033
18.264,-0.030
18.266,-0.028
18.268,-0.027
18.270,-0.027
18.272,-0.027
18.274,-0.027
18.276,-0.027
18.278,-0.026
18.280,-0.025
18.282,-0.024
18.284,-0.023
