'Elapsed time','ECG ECG'
'seconds','mV'
0.000,-0.030
0.002,-0.034
0.004,-0.039
0.006,-0.043
0.008,-0.046
0.010,-0.046
0.012,-0.044
0.014,-0.038
0.016,-0.030
0.018,-0.022
0.020,-0.014
0.022,-0.008
0.024,-0.004
0.026,-0.002
0.028,-0.003
0.030,-0.006
0.032,-0.009
0.034,-0.013
0.036,-0.017
0.038,-0.020
0.040,-0.022
0.042,-0.023
0.044,-0.023
0.046,-0.022
0.048,-0.021
0.050,-0.020
0.052,-0.019
0.054,-0.018
0.056,-0.017
0.058,-0.015
0.060,-0.012
0.062,-0.008
0.064,-0.003
0.066,0.002
0.068,0.007
0.070,0.011
0.072,0.013
0.074,0.015
0.076,0.016
0.078,0.018
0.080,0.020
0.082,0.022
0.084,0.024
0.086,0.026
0.088,0.026
0.090,0.026
0.092,0.025
0.094,0.023
0.096,0.021
0.098,0.020
0.100,0.020
0.102,0.021
0.104,0.024
0.106,0.027
0.108,0.032
0.110,0.036
0.112,0.041
0.114,0.045
0.116,0.048
0.118,0.050
0.120,0.051
0.122,0.052
0.124,0.052
0.126,0.053
0.128,0.055
0.130,0.057
0.132,0.060
0.134,0.064
0.136,0.068
0.138,0.072
0.140,0.075
0.142,0.078
0.144,0.081
0.146,0.084
0.148,0.087
0.150,0.091
0.152,0.095
0.154,0.100
0.156,0.104
0.158,0.109
0.160,0.114
0.162,0.119
0.164,0.123
0.166,0.127
0.168,0.130
0.170,0.134
0.172,0.138
0.174,0.141
0.176,0.146
0.178,0.150
0.180,0.156
0.182,0.163
0.184,0.170
0.186,0.178
0.188,0.186
0.190,0.195
0.192,0.203
0.194,0.210
0.196,0.216
0.198,0.222
0.200,0.228
0.202,0.232
0.204,0.236
0.206,0.240
0.208,0.244
0.210,0.248
0.212,0.252
0.214,0.255
0.216,0.258
0.218,0.261
0.220,0.263
0.222,0.264
0.224,0.264
0.226,0.264
0.228,0.264
0.230,0.263
0.232,0.261
0.234,0.259
0.236,0.255
0.238,0.249
0.240,0.241
0.242,0.232
0.244,0.221
0.246,0.210
0.248,0.197
0.250,0.185
0.252,0.172
0.254,0.160
0.256,0.149
0.258,0.137
0.260,0.125
0.262,0.113
0.264,0.099
0.266,0.083
0.268,0.067
0.270,0.049
0.272,0.032
0.274,0.016
0.276,0.002
0.278,-0.009
0.280,-0.018
0.282,-0.023
0.284,-0.026
0.286,-0.027
0.288,-0.028
0.290,-0.028
0.292,-0.030
0.294,-0.033
0.296,-0.038
0.298,-0.043
0.300,-0.050
0.302,-0.056
0.304,-0.062
0.306,-0.068
0.308,-0.073
0.310,-0.078
0.312,-0.082
0.314,-0.085
0.316,-0.089
0.318,-0.091
0.320,-0.093
0.322,-0.094
0.324,-0.094
0.326,-0.093
0.328,-0.092
0.330,-0.091
0.332,-0.091
0.334,-0.090
0.336,-0.090
0.338,-0.091
0.340,-0.091
0.342,-0.092
0.344,-0.093
0.346,-0.094
0.348,-0.094
0.350,-0.094
0.352,-0.092
0.354,-0.091
0.356,-0.088
0.358,-0.087
0.360,-0.086
0.362,-0.086
0.364,-0.087
0.366,-0.088
0.368,-0.089
0.370,-0.088
0.372,-0.087
0.374,-0.084
0.376,-0.081
0.378,-0.078
0.380,-0.076
0.382,-0.075
0.384,-0.074
0.386,-0.073
0.388,-0.071
0.390,-0.069
0.392,-0.065
0.394,-0.062
0.396,-0.059
0.398,-0.056
0.400,-0.053
0.402,-0.052
0.404,-0.051
0.406,-0.051
0.408,-0.053
0.410,-0.056
0.412,-0.060
0.414,-0.064
0.416,-0.067
0.418,-0.069
0.420,-0.069
0.422,-0.067
0.424,-0.064
0.426,-0.060
0.428,-0.057
0.430,-0.055
0.432,-0.055
0.434,-0.057
0.436,-0.060
0.438,-0.063
0.440,-0.066
0.442,-0.069
0.444,-0.071
0.446,-0.071
0.448,-0.071
0.450,-0.070
0.452,-0.067
0.454,-0.065
0.456,-0.062
0.458,-0.059
0.460,-0.056
0.462,-0.055
0.464,-0.055
0.466,-0.056
0.468,-0.058
0.470,-0.061
0.472,-0.063
0.474,-0.064
0.476,-0.064
0.478,-0.063
0.480,-0.062
0.482,-0.062
0.484,-0.062
0.486,-0.063
0.488,-0.065
0.490,-0.066
0.492,-0.068
0.494,-0.069
0.496,-0.069
0.498,-0.068
0.500,-0.067
0.502,-0.066
0.504,-0.064
0.506,-0.062
0.508,-0.060
0.510,-0.059
0.512,-0.060
0.514,-0.061
0.516,-0.065
0.518,-0.068
0.520,-0.072
0.522,-0.075
0.524,-0.076
0.526,-0.075
0.528,-0.074
0.530,-0.071
0.532,-0.070
0.534,-0.069
0.536,-0.070
0.538,-0.072
0.540,-0.075
0.542,-0.078
0.544,-0.081
0.546,-0.082
0.548,-0.083
0.550,-0.083
0.552,-0.082
0.554,-0.080
0.556,-0.078
0.558,-0.074
0.560,-0.070
0.562,-0.066
0.564,-0.061
0.566,-0.056
0.568,-0.050
0.570,-0.046
0.572,-0.042
0.574,-0.038
0.576,-0.035
0.578,-0.033
0.580,-0.031
0.582,-0.031
0.584,-0.032
0.586,-0.033
0.588,-0.035
0.590,-0.037
0.592,-0.037
0.594,-0.035
0.596,-0.031
0.598,-0.025
0.600,-0.019
0.602,-0.012
0.604,-0.005
0.606,0.001
0.608,0.005
0.610,0.008
0.612,0.010
0.614,0.011
0.616,0.011
0.618,0.009
0.620,0.006
0.622,0.001
0.624,-0.005
0.626,-0.011
0.628,-0.018
0.630,-0.026
0.632,-0.034
0.634,-0.043
0.636,-0.053
0.638,-0.063
0.640,-0.072
0.642,-0.080
0.644,-0.086
0.646,-0.088
0.648,-0.088
0.650,-0.085
0.652,-0.080
0.654,-0.076
0.656,-0.071
0.658,-0.069
0.660,-0.069
0.662,-0.072
0.664,-0.077
0.666,-0.083
0.668,-0.087
0.670,-0.090
0.672,-0.089
0.674,-0.085
0.676,-0.078
0.678,-0.070
0.680,-0.065
0.682,-0.063
0.684,-0.066
0.686,-0.071
0.688,-0.079
0.690,-0.085
0.692,-0.089
0.694,-0.090
0.696,-0.091
0.698,-0.092
0.700,-0.097
0.702,-0.106
0.704,-0.116
0.706,-0.125
0.708,-0.127
0.710,-0.115
0.712,-0.084
0.714,-0.031
0.716,0.043
0.718,0.137
0.720,0.243
0.722,0.352
0.724,0.451
0.726,0.529
0.728,0.574
0.730,0.578
0.732,0.538
0.734,0.460
0.736,0.352
0.738,0.232
0.740,0.115
0.742,0.017
0.744,-0.054
0.746,-0.094
0.748,-0.106
0.750,-0.099
0.752,-0.081
0.754,-0.060
0.756,-0.042
0.758,-0.030
0.760,-0.025
0.762,-0.025
0.764,-0.030
0.766,-0.036
0.768,-0.042
0.770,-0.046
0.772,-0.046
0.774,-0.044
0.776,-0.039
0.778,-0.033
0.780,-0.028
0.782,-0.026
0.784,-0.027
0.786,-0.030
0.788,-0.034
0.790,-0.037
0.792,-0.038
0.794,-0.036
0.796,-0.031
0.798,-0.026
0.800,-0.021
0.802,-0.019
0.804,-0.020
0.806,-0.024
0.808,-0.029
0.810,-0.034
0.812,-0.037
0.814,-0.037
0.816,-0.034
0.818,-0.029
0.820,-0.023
0.822,-0.019
0.824,-0.015
0.826,-0.012
0.828,-0.010
0.830,-0.008
0.832,-0.005
0.834,-0.001
0.836,0.003
0.838,0.007
0.840,0.009
0.842,0.011
0.844,0.011
0.846,0.011
0.848,0.010
0.850,0.011
0.852,0.013
0.854,0.016
0.856,0.019
0.858,0.023
0.860,0.027
0.862,0.030
0.864,0.033
0.866,0.036
0.868,0.038
0.870,0.041
0.872,0.044
0.874,0.047
0.876,0.049
0.878,0.051
0.880,0.053
0.882,0.055
0.884,0.056
0.886,0.057
0.888,0.059
0.890,0.062
0.892,0.066
0.894,0.070
0.896,0.076
0.898,0.081
0.900,0.087
0.902,0.092
0.904,0.097
0.906,0.101
0.908,0.104
0.910,0.106
0.912,0.107
0.914,0.109
0.916,0.112
0.918,0.116
0.920,0.122
0.922,0.130
0.924,0.139
0.926,0.149
0.928,0.158
0.930,0.165
0.932,0.171
0.934,0.174
0.936,0.177
0.938,0.180
0.940,0.183
0.942,0.188
0.944,0.195
0.946,0.203
0.948,0.212
0.950,0.221
0.952,0.229
0.954,0.237
0.956,0.243
0.958,0.248
0.960,0.253
0.962,0.256
0.964,0.260
0.966,0.264
0.968,0.267
0.970,0.272
0.972,0.276
0.974,0.280
0.976,0.283
0.978,0.285
0.980,0.286
0.982,0.284
0.984,0.281
0.986,0.277
0.988,0.272
0.990,0.266
0.992,0.259
0.994,0.253
0.996,0.246
0.998,0.239
1.000,0.231
1.002,0.221
1.004,0.209
1.006,0.196
1.008,0.181
1.010,0.166
1.012,0.150
1.014,0.136
1.016,0.122
1.018,0.109
1.020,0.097
1.022,0.085
1.024,0.073
1.026,0.061
1.028,0.048
1.030,0.035
1.032,0.021
1.034,0.007
1.036,-0.006
1.038,-0.017
1.040,-0.027
1.042,-0.035
1.044,-0.040
1.046,-0.043
1.048,-0.045
1.050,-0.046
1.052,-0.048
1.054,-0.051
1.056,-0.054
1.058,-0.059
1.060,-0.064
1.062,-0.068
1.064,-0.071
1.066,-0.072
1.068,-0.071
1.070,-0.069
1.072,-0.067
1.074,-0.065
1.076,-0.064
1.078,-0.065
1.080,-0.067
1.082,-0.071
1.084,-0.075
1.086,-0.080
1.088,-0.084
1.090,-0.088
1.092,-0.090
1.094,-0.091
1.096,-0.090
1.098,-0.088
1.100,-0.084
1.102,-0.079
1.104,-0.073
1.106,-0.069
1.108,-0.066
1.110,-0.064
1.112,-0.064
1.114,-0.065
1.116,-0.068
1.118,-0.071
1.120,-0.074
1.122,-0.076
1.124,-0.078
1.126,-0.079
1.128,-0.079
1.130,-0.077
1.132,-0.074
1.134,-0.070
1.136,-0.066
1.138,-0.062
1.140,-0.058
1.142,-0.056
1.144,-0.055
1.146,-0.056
1.148,-0.057
1.150,-0.059
1.152,-0.060
1.154,-0.062
1.156,-0.062
1.158,-0.062
1.160,-0.061
1.162,-0.060
1.164,-0.059
1.166,-0.057
1.168,-0.055
1.170,-0.052
1.172,-0.049
1.174,-0.046
1.176,-0.043
1.178,-0.040
1.180,-0.039
1.182,-0.040
1.184,-0.042
1.186,-0.046
1.188,-0.050
1.190,-0.054
1.192,-0.057
1.194,-0.059
1.196,-0.059
1.198,-0.057
1.200,-0.054
1.202,-0.050
1.204,-0.045
1.206,-0.041
1.208,-0.038
1.210,-0.038
1.212,-0.039
1.214,-0.042
1.216,-0.046
1.218,-0.050
1.220,-0.052
1.222,-0.053
1.224,-0.052
1.226,-0.050
1.228,-0.046
1.230,-0.043
1.232,-0.041
1.234,-0.040
1.236,-0.040
1.238,-0.043
1.240,-0.047
1.242,-0.051
1.244,-0.056
1.246,-0.059
1.248,-0.062
1.250,-0.063
1.252,-0.063
1.254,-0.062
1.256,-0.060
1.258,-0.057
1.260,-0.053
1.262,-0.050
1.264,-0.047
1.266,-0.045
1.268,-0.044
1.270,-0.044
1.272,-0.045
1.274,-0.046
1.276,-0.048
1.278,-0.050
1.280,-0.052
1.282,-0.054
1.284,-0.055
1.286,-0.055
1.288,-0.054
1.290,-0.053
1.292,-0.051
1.294,-0.050
1.296,-0.050
1.298,-0.050
1.300,-0.052
1.302,-0.053
1.304,-0.055
1.306,-0.056
1.308,-0.057
1.310,-0.056
1.312,-0.055
1.314,-0.053
1.316,-0.051
1.318,-0.050
1.320,-0.049
1.322,-0.048
1.324,-0.048
1.326,-0.049
1.328,-0.051
1.330,-0.053
1.332,-0.054
1.334,-0.056
1.336,-0.058
1.338,-0.059
1.340,-0.060
1.342,-0.061
1.344,-0.062
1.346,-0.061
1.348,-0.061
1.350,-0.060
1.352,-0.057
1.354,-0.054
1.356,-0.050
1.358,-0.046
1.360,-0.042
1.362,-0.039
1.364,-0.038
1.366,-0.039
1.368,-0.042
1.370,-0.046
1.372,-0.051
1.374,-0.055
1.376,-0.057
1.378,-0.058
1.380,-0.058
1.382,-0.056
1.384,-0.054
1.386,-0.053
1.388,-0.052
1.390,-0.052
1.392,-0.052
1.394,-0.053
1.396,-0.055
1.398,-0.056
1.400,-0.056
1.402,-0.055
1.404,-0.053
1.406,-0.051
1.408,-0.048
1.410,-0.046
1.412,-0.045
1.414,-0.046
1.416,-0.047
1.418,-0.049
1.420,-0.051
1.422,-0.053
1.424,-0.053
1.426,-0.051
1.428,-0.049
1.430,-0.046
1.432,-0.043
1.434,-0.041
1.436,-0.041
1.438,-0.043
1.440,-0.046
1.442,-0.050
1.444,-0.054
1.446,-0.057
1.448,-0.058
1.450,-0.056
1.452,-0.053
1.454,-0.048
1.456,-0.042
1.458,-0.037
1.460,-0.033
1.462,-0.031
1.464,-0.032
1.466,-0.035
1.468,-0.039
1.470,-0.044
1.472,-0.048
1.474,-0.052
1.476,-0.054
1.478,-0.054
1.480,-0.053
1.482,-0.052
1.484,-0.050
1.486,-0.049
1.488,-0.048
1.490,-0.047
1.492,-0.047
1.494,-0.047
1.496,-0.048
1.498,-0.048
1.500,-0.048
1.502,-0.047
1.504,-0.045
1.506,-0.042
1.508,-0.040
1.510,-0.037
1.512,-0.035
1.514,-0.034
1.516,-0.035
1.518,-0.037
1.520,-0.041
1.522,-0.044
1.524,-0.048
1.526,-0.051
1.528,-0.053
1.530,-0.053
1.532,-0.053
1.534,-0.051
1.536,-0.048
1.538,-0.045
1.540,-0.043
1.542,-0.040
1.544,-0.039
1.546,-0.040
1.548,-0.042
1.550,-0.046
1.552,-0.049
1.554,-0.052
1.556,-0.054
1.558,-0.054
1.560,-0.051
1.562,-0.047
1.564,-0.041
1.566,-0.036
1.568,-0.031
1.570,-0.028
1.572,-0.027
1.574,-0.028
1.576,-0.031
1.578,-0.036
1.580,-0.041
1.582,-0.047
1.584,-0.051
1.586,-0.053
1.588,-0.053
1.590,-0.050
1.592,-0.046
1.594,-0.041
1.596,-0.036
1.598,-0.033
1.600,-0.030
1.602,-0.030
1.604,-0.031
1.606,-0.033
1.608,-0.035
1.610,-0.037
1.612,-0.039
1.614,-0.041
1.616,-0.042
1.618,-0.043
1.620,-0.043
1.622,-0.043
1.624,-0.044
1.626,-0.044
1.628,-0.045
1.630,-0.045
1.632,-0.046
1.634,-0.046
1.636,-0.046
1.638,-0.045
1.640,-0.044
1.642,-0.044
1.644,-0.045
1.646,-0.046
1.648,-0.048
1.650,-0.048
1.652,-0.048
1.654,-0.046
1.656,-0.043
1.658,-0.039
1.660,-0.034
1.662,-0.029
1.664,-0.026
1.666,-0.024
1.668,-0.024
1.670,-0.026
1.672,-0.030
1.674,-0.034
1.676,-0.039
1.678,-0.042
1.680,-0.044
1.682,-0.043
1.684,-0.041
1.686,-0.036
1.688,-0.032
1.690,-0.028
1.692,-0.027
1.694,-0.028
1.696,-0.032
1.698,-0.036
1.700,-0.040
1.702,-0.043
1.704,-0.044
1.706,-0.043
1.708,-0.041
1.710,-0.038
1.712,-0.035
1.714,-0.034
1.716,-0.034
1.718,-0.035
1.720,-0.037
1.722,-0.040
1.724,-0.044
1.726,-0.047
1.728,-0.048
1.730,-0.049
1.732,-0.048
1.734,-0.045
1.736,-0.040
1.738,-0.036
1.740,-0.032
1.742,-0.028
1.744,-0.027
1.746,-0.028
1.748,-0.030
1.750,-0.034
1.752,-0.037
1.754,-0.039
1.756,-0.041
1.758,-0.041
1.760,-0.041
1.762,-0.040
1.764,-0.038
1.766,-0.036
1.768,-0.034
1.770,-0.029
1.772,-0.023
1.774,-0.015
1.776,-0.006
1.778,0.003
1.780,0.011
1.782,0.016
1.784,0.018
1.786,0.018
1.788,0.015
1.790,0.010
1.792,0.006
1.794,0.001
1.796,-0.001
1.798,-0.002
1.800,-0.001
1.802,0.001
1.804,0.005
1.806,0.010
1.808,0.015
1.810,0.019
1.812,0.023
1.814,0.026
1.816,0.028
1.818,0.029
1.820,0.029
1.822,0.028
1.824,0.026
1.826,0.025
1.828,0.023
1.830,0.020
1.832,0.017
1.834,0.012
1.836,0.005
1.838,-0.003
1.840,-0.011
1.842,-0.018
1.844,-0.024
1.846,-0.028
1.848,-0.031
1.850,-0.034
1.852,-0.037
1.854,-0.042
1.856,-0.048
1.858,-0.055
1.860,-0.061
1.862,-0.064
1.864,-0.063
1.866,-0.059
1.868,-0.051
1.870,-0.044
1.872,-0.038
1.874,-0.036
1.876,-0.038
1.878,-0.044
1.880,-0.052
1.882,-0.059
1.884,-0.063
1.886,-0.064
1.888,-0.063
1.890,-0.063
1.892,-0.065
1.894,-0.072
1.896,-0.082
1.898,-0.093
1.900,-0.100
1.902,-0.096
1.904,-0.074
1.906,-0.031
1.908,0.037
1.910,0.128
1.912,0.237
1.914,0.354
1.916,0.470
1.918,0.570
1.920,0.641
1.922,0.673
1.924,0.660
1.926,0.602
1.928,0.507
1.930,0.389
1.932,0.265
1.934,0.152
1.936,0.063
1.938,0.004
1.940,-0.025
1.942,-0.030
1.944,-0.020
1.946,-0.006
1.948,0.006
1.950,0.013
1.952,0.012
1.954,0.006
1.956,-0.003
1.958,-0.013
1.960,-0.021
1.962,-0.026
1.964,-0.027
1.966,-0.024
1.968,-0.018
1.970,-0.011
1.972,-0.005
1.974,-0.003
1.976,-0.004
1.978,-0.009
1.980,-0.017
1.982,-0.023
1.984,-0.027
1.986,-0.026
1.988,-0.021
1.990,-0.013
1.992,-0.005
1.994,0.001
1.996,0.004
1.998,0.002
2.000,-0.003
2.002,-0.009
2.004,-0.015
2.006,-0.020
2.008,-0.022
2.010,-0.021
2.012,-0.020
2.014,-0.018
2.016,-0.017
2.018,-0.016
2.020,-0.014
2.022,-0.011
2.024,-0.006
2.026,0.002
2.028,0.011
2.030,0.020
2.032,0.028
2.034,0.033
2.036,0.034
2.038,0.033
2.040,0.029
2.042,0.024
2.044,0.020
2.046,0.017
2.048,0.016
2.050,0.016
2.052,0.018
2.054,0.022
2.056,0.025
2.058,0.029
2.060,0.033
2.062,0.037
2.064,0.041
2.066,0.045
2.068,0.049
2.070,0.053
2.072,0.058
2.074,0.062
2.076,0.067
2.078,0.072
2.080,0.077
2.082,0.080
2.084,0.082
2.086,0.083
2.088,0.083
2.090,0.083
2.092,0.082
2.094,0.082
2.096,0.083
2.098,0.085
2.100,0.087
2.102,0.090
2.104,0.094
2.106,0.099
2.108,0.104
2.110,0.110
2.112,0.117
2.114,0.123
2.116,0.129
2.118,0.135
2.120,0.139
2.122,0.143
2.124,0.146
2.126,0.148
2.128,0.151
2.130,0.154
2.132,0.158
2.134,0.164
2.136,0.170
2.138,0.177
2.140,0.183
2.142,0.189
2.144,0.193
2.146,0.196
2.148,0.197
2.150,0.199
2.152,0.201
2.154,0.205
2.156,0.212
2.158,0.220
2.160,0.229
2.162,0.239
2.164,0.247
2.166,0.253
2.168,0.256
2.170,0.256
2.172,0.254
2.174,0.251
2.176,0.247
2.178,0.245
2.180,0.244
2.182,0.244
2.184,0.246
2.186,0.249
2.188,0.252
2.190,0.255
2.192,0.257
2.194,0.257
2.196,0.255
2.198,0.251
2.200,0.245
2.202,0.237
2.204,0.228
2.206,0.218
2.208,0.208
2.210,0.198
2.212,0.188
2.214,0.177
2.216,0.165
2.218,0.152
2.220,0.138
2.222,0.123
2.224,0.109
2.226,0.094
2.228,0.081
2.230,0.070
2.232,0.060
2.234,0.052
2.236,0.044
2.238,0.038
2.240,0.031
2.242,0.024
2.244,0.017
2.246,0.009
2.248,0.002
2.250,-0.006
2.252,-0.013
2.254,-0.019
2.256,-0.025
2.258,-0.030
2.260,-0.034
2.262,-0.038
2.264,-0.042
2.266,-0.045
2.268,-0.049
2.270,-0.052
2.272,-0.056
2.274,-0.059
2.276,-0.062
2.278,-0.065
2.280,-0.065
2.282,-0.064
2.284,-0.060
2.286,-0.054
2.288,-0.048
2.290,-0.042
2.292,-0.037
2.294,-0.035
2.296,-0.034
2.298,-0.036
2.300,-0.038
2.302,-0.040
2.304,-0.041
2.306,-0.042
2.308,-0.043
2.310,-0.044
2.312,-0.046
2.314,-0.049
2.316,-0.052
2.318,-0.056
2.320,-0.059
2.322,-0.061
2.324,-0.061
2.326,-0.060
2.328,-0.057
2.330,-0.053
2.332,-0.049
2.334,-0.046
2.336,-0.043
2.338,-0.041
2.340,-0.040
2.342,-0.040
2.344,-0.042
2.346,-0.043
2.348,-0.045
2.350,-0.047
2.352,-0.047
2.354,-0.047
2.356,-0.045
2.358,-0.044
2.360,-0.042
2.362,-0.040
2.364,-0.039
2.366,-0.038
2.368,-0.037
2.370,-0.035
2.372,-0.032
2.374,-0.027
2.376,-0.021
2.378,-0.015
2.380,-0.011
2.382,-0.010
2.384,-0.012
2.386,-0.017
2.388,-0.025
2.390,-0.032
2.392,-0.039
2.394,-0.042
2.396,-0.043
2.398,-0.041
2.400,-0.037
2.402,-0.033
2.404,-0.030
2.406,-0.028
2.408,-0.028
2.410,-0.030
2.412,-0.033
2.414,-0.036
2.416,-0.039
2.418,-0.041
2.420,-0.043
2.422,-0.043
2.424,-0.042
2.426,-0.041
2.428,-0.040
2.430,-0.040
2.432,-0.041
2.434,-0.043
2.436,-0.046
2.438,-0.049
2.440,-0.052
2.442,-0.054
2.444,-0.054
2.446,-0.053
2.448,-0.051
2.450,-0.049
2.452,-0.048
2.454,-0.049
2.456,-0.051
2.458,-0.053
2.460,-0.054
2.462,-0.055
2.464,-0.054
2.466,-0.051
2.468,-0.048
2.470,-0.045
2.472,-0.044
2.474,-0.045
2.476,-0.047
2.478,-0.051
2.480,-0.055
2.482,-0.059
2.484,-0.063
2.486,-0.065
2.488,-0.065
2.490,-0.063
2.492,-0.060
2.494,-0.055
2.496,-0.051
2.498,-0.046
2.500,-0.044
2.502,-0.043
2.504,-0.044
2.506,-0.047
2.508,-0.050
2.510,-0.052
2.512,-0.055
2.514,-0.056
2.516,-0.057
2.518,-0.059
2.520,-0.060
2.522,-0.062
2.524,-0.064
2.526,-0.065
2.528,-0.066
2.530,-0.065
2.532,-0.063
2.534,-0.060
2.536,-0.057
2.538,-0.055
2.540,-0.054
2.542,-0.054
2.544,-0.056
2.546,-0.059
2.548,-0.063
2.550,-0.067
2.552,-0.071
2.554,-0.073
2.556,-0.073
2.558,-0.072
2.560,-0.069
2.562,-0.066
2.564,-0.062
2.566,-0.060
2.568,-0.058
2.570,-0.057
2.572,-0.057
2.574,-0.059
2.576,-0.061
2.578,-0.064
2.580,-0.066
2.582,-0.068
2.584,-0.068
2.586,-0.068
2.588,-0.068
2.590,-0.067
2.592,-0.067
2.594,-0.066
2.596,-0.066
2.598,-0.066
2.600,-0.064
2.602,-0.062
2.604,-0.059
2.606,-0.055
2.608,-0.052
2.610,-0.050
2.612,-0.049
2.614,-0.048
2.616,-0.049
2.618,-0.050
2.620,-0.051
2.622,-0.053
2.624,-0.054
2.626,-0.056
2.628,-0.057
2.630,-0.059
2.632,-0.060
2.634,-0.061
2.636,-0.061
2.638,-0.062
2.640,-0.062
2.642,-0.061
2.644,-0.061
2.646,-0.062
2.648,-0.062
2.650,-0.063
2.652,-0.063
2.654,-0.064
2.656,-0.064
2.658,-0.064
2.660,-0.064
2.662,-0.064
2.664,-0.064
2.666,-0.064
2.668,-0.063
2.670,-0.063
2.672,-0.062
2.674,-0.062
2.676,-0.061
2.678,-0.062
2.680,-0.063
2.682,-0.064
2.684,-0.066
2.686,-0.067
2.688,-0.067
2.690,-0.066
2.692,-0.065
2.694,-0.064
2.696,-0.063
2.698,-0.063
2.700,-0.063
2.702,-0.064
2.704,-0.064
2.706,-0.065
2.708,-0.065
2.710,-0.066
2.712,-0.066
2.714,-0.066
2.716,-0.066
2.718,-0.064
2.720,-0.062
2.722,-0.058
2.724,-0.054
2.726,-0.049
2.728,-0.047
2.730,-0.045
2.732,-0.046
2.734,-0.048
2.736,-0.051
2.738,-0.055
2.740,-0.060
2.742,-0.064
2.744,-0.067
2.746,-0.070
2.748,-0.072
2.750,-0.071
2.752,-0.069
2.754,-0.065
2.756,-0.059
2.758,-0.053
2.760,-0.048
2.762,-0.044
2.764,-0.042
2.766,-0.043
2.768,-0.045
2.770,-0.049
2.772,-0.053
2.774,-0.057
2.776,-0.060
2.778,-0.063
2.780,-0.064
2.782,-0.065
2.784,-0.064
2.786,-0.064
2.788,-0.063
2.790,-0.062
2.792,-0.061
2.794,-0.061
2.796,-0.061
2.798,-0.060
2.800,-0.060
2.802,-0.059
2.804,-0.057
2.806,-0.056
2.808,-0.055
2.810,-0.055
2.812,-0.055
2.814,-0.056
2.816,-0.057
2.818,-0.058
2.820,-0.058
2.822,-0.056
2.824,-0.054
2.826,-0.051
2.828,-0.048
2.830,-0.047
2.832,-0.046
2.834,-0.047
2.836,-0.050
2.838,-0.053
2.840,-0.057
2.842,-0.060
2.844,-0.063
2.846,-0.063
2.848,-0.062
2.850,-0.058
2.852,-0.054
2.854,-0.049
2.856,-0.045
2.858,-0.043
2.860,-0.043
2.862,-0.044
2.864,-0.046
2.866,-0.049
2.868,-0.050
2.870,-0.050
2.872,-0.047
2.874,-0.043
2.876,-0.038
2.878,-0.032
2.880,-0.027
2.882,-0.022
2.884,-0.018
2.886,-0.015
2.888,-0.013
2.890,-0.011
2.892,-0.010
2.894,-0.008
2.896,-0.006
2.898,-0.002
2.900,0.002
2.902,0.008
2.904,0.015
2.906,0.021
2.908,0.027
2.910,0.030
2.912,0.031
2.914,0.029
2.916,0.024
2.918,0.017
2.920,0.010
2.922,0.002
2.924,-0.003
2.926,-0.007
2.928,-0.007
2.930,-0.005
2.932,-0.000
2.934,0.005
2.936,0.010
2.938,0.012
2.940,0.011
2.942,0.004
2.944,-0.006
2.946,-0.021
2.948,-0.037
2.950,-0.054
2.952,-0.068
2.954,-0.079
2.956,-0.085
2.958,-0.087
2.960,-0.085
2.962,-0.080
2.964,-0.073
2.966,-0.066
2.968,-0.060
2.970,-0.055
2.972,-0.050
2.974,-0.047
2.976,-0.045
2.978,-0.045
2.980,-0.048
2.982,-0.054
2.984,-0.062
2.986,-0.071
2.988,-0.078
2.990,-0.082
2.992,-0.082
2.994,-0.080
2.996,-0.077
2.998,-0.076
3.000,-0.079
3.002,-0.085
3.004,-0.093
3.006,-0.098
3.008,-0.095
3.010,-0.077
3.012,-0.040
3.014,0.018
3.016,0.097
3.018,0.193
3.020,0.298
3.022,0.404
3.024,0.498
3.026,0.568
3.028,0.604
3.030,0.599
3.032,0.551
3.034,0.465
3.036,0.354
3.038,0.232
3.040,0.115
3.042,0.019
3.044,-0.050
3.046,-0.088
3.048,-0.101
3.050,-0.094
3.052,-0.078
3.054,-0.060
3.056,-0.044
3.058,-0.035
3.060,-0.031
3.062,-0.033
3.064,-0.039
3.066,-0.046
3.068,-0.052
3.070,-0.054
3.072,-0.051
3.074,-0.043
3.076,-0.033
3.078,-0.021
3.080,-0.013
3.082,-0.008
3.084,-0.009
3.086,-0.013
3.088,-0.020
3.090,-0.026
3.092,-0.030
3.094,-0.030
3.096,-0.028
3.098,-0.024
3.100,-0.020
3.102,-0.017
3.104,-0.015
3.106,-0.015
3.108,-0.016
3.110,-0.015
3.112,-0.014
3.114,-0.012
3.116,-0.009
3.118,-0.006
3.120,-0.004
3.122,-0.003
3.124,-0.003
3.126,-0.004
3.128,-0.006
3.130,-0.008
3.132,-0.008
3.134,-0.008
3.136,-0.006
3.138,-0.004
3.140,-0.001
3.142,0.002
3.144,0.006
3.146,0.009
3.148,0.013
3.150,0.016
3.152,0.020
3.154,0.023
3.156,0.026
3.158,0.029
3.160,0.032
3.162,0.034
3.164,0.036
3.166,0.038
3.168,0.039
3.170,0.042
3.172,0.045
3.174,0.049
3.176,0.053
3.178,0.056
3.180,0.058
3.182,0.059
3.184,0.058
3.186,0.056
3.188,0.055
3.190,0.056
3.192,0.058
3.194,0.063
3.196,0.070
3.198,0.078
3.200,0.086
3.202,0.094
3.204,0.101
3.206,0.105
3.208,0.109
3.210,0.111
3.212,0.113
3.214,0.115
3.216,0.118
3.218,0.121
3.220,0.125
3.222,0.130
3.224,0.136
3.226,0.142
3.228,0.148
3.230,0.153
3.232,0.157
3.234,0.161
3.236,0.164
3.238,0.168
3.240,0.173
3.242,0.179
3.244,0.186
3.246,0.194
3.248,0.201
3.250,0.208
3.252,0.213
3.254,0.218
3.256,0.222
3.258,0.227
3.260,0.232
3.262,0.238
3.264,0.245
3.266,0.252
3.268,0.258
3.270,0.262
3.272,0.263
3.274,0.262
3.276,0.258
3.278,0.254
3.280,0.251
3.282,0.249
3.284,0.250
3.286,0.254
3.288,0.259
3.290,0.265
3.292,0.270
3.294,0.273
3.296,0.272
3.298,0.268
3.300,0.261
3.302,0.252
3.304,0.242
3.306,0.232
3.308,0.222
3.310,0.213
3.312,0.204
3.314,0.195
3.316,0.186
3.318,0.175
3.320,0.163
3.322,0.148
3.324,0.132
3.326,0.115
3.328,0.097
3.330,0.080
3.332,0.064
3.334,0.052
3.336,0.041
3.338,0.033
3.340,0.027
3.342,0.020
3.344,0.013
3.346,0.004
3.348,-0.005
3.350,-0.015
3.352,-0.025
3.354,-0.033
3.356,-0.038
3.358,-0.042
3.360,-0.045
3.362,-0.047
3.364,-0.048
3.366,-0.051
3.368,-0.054
3.370,-0.058
3.372,-0.063
3.374,-0.067
3.376,-0.072
3.378,-0.075
3.380,-0.078
3.382,-0.081
3.384,-0.083
3.386,-0.084
3.388,-0.085
3.390,-0.085
3.392,-0.085
3.394,-0.085
3.396,-0.086
3.398,-0.087
3.400,-0.089
3.402,-0.090
3.404,-0.091
3.406,-0.091
3.408,-0.088
3.410,-0.084
3.412,-0.079
3.414,-0.073
3.416,-0.068
3.418,-0.064
3.420,-0.062
3.422,-0.060
3.424,-0.060
3.426,-0.060
3.428,-0.061
3.430,-0.063
3.432,-0.064
3.434,-0.066
3.436,-0.068
3.438,-0.069
3.440,-0.068
3.442,-0.067
3.444,-0.065
3.446,-0.062
3.448,-0.061
3.450,-0.060
3.452,-0.061
3.454,-0.062
3.456,-0.062
3.458,-0.062
3.460,-0.060
3.462,-0.058
3.464,-0.054
3.466,-0.050
3.468,-0.047
3.470,-0.045
3.472,-0.045
3.474,-0.046
3.476,-0.049
3.478,-0.053
3.480,-0.057
3.482,-0.060
3.484,-0.062
3.486,-0.063
3.488,-0.062
3.490,-0.059
3.492,-0.055
3.494,-0.051
3.496,-0.048
3.498,-0.046
3.500,-0.045
3.502,-0.047
3.504,-0.048
3.506,-0.051
3.508,-0.052
3.510,-0.053
3.512,-0.054
3.514,-0.054
3.516,-0.053
3.518,-0.053
3.520,-0.054
3.522,-0.055
3.524,-0.058
3.526,-0.060
3.528,-0.063
3.530,-0.066
3.532,-0.067
3.534,-0.067
3.536,-0.065
3.538,-0.062
3.540,-0.059
3.542,-0.056
3.544,-0.053
3.546,-0.052
3.548,-0.052
3.550,-0.052
3.552,-0.053
3.554,-0.054
3.556,-0.056
3.558,-0.057
3.560,-0.057
3.562,-0.058
3.564,-0.059
3.566,-0.061
3.568,-0.062
3.570,-0.064
3.572,-0.066
3.574,-0.067
3.576,-0.069
3.578,-0.070
3.580,-0.071
3.582,-0.071
3.584,-0.071
3.586,-0.072
3.588,-0.072
3.590,-0.072
3.592,-0.072
3.594,-0.072
3.596,-0.070
3.598,-0.069
3.600,-0.067
3.602,-0.066
3.604,-0.065
3.606,-0.065
3.608,-0.066
3.610,-0.067
3.612,-0.069
3.614,-0.071
3.616,-0.072
3.618,-0.073
3.620,-0.074
3.622,-0.074
3.624,-0.074
3.626,-0.074
3.628,-0.073
3.630,-0.072
3.632,-0.072
3.634,-0.072
3.636,-0.072
3.638,-0.073
3.640,-0.073
3.642,-0.073
3.644,-0.072
3.646,-0.070
3.648,-0.069
3.650,-0.067
3.652,-0.066
3.654,-0.067
3.656,-0.068
3.658,-0.070
3.660,-0.072
3.662,-0.072
3.664,-0.072
3.666,-0.071
3.668,-0.069
3.670,-0.068
3.672,-0.067
3.674,-0.067
3.676,-0.069
3.678,-0.071
3.680,-0.074
3.682,-0.075
3.684,-0.076
3.686,-0.076
3.688,-0.074
3.690,-0.071
3.692,-0.067
3.694,-0.064
3.696,-0.062
3.698,-0.060
3.700,-0.060
3.702,-0.061
3.704,-0.064
3.706,-0.067
3.708,-0.070
3.710,-0.073
3.712,-0.076
3.714,-0.078
3.716,-0.079
3.718,-0.079
3.720,-0.077
3.722,-0.075
3.724,-0.073
3.726,-0.070
3.728,-0.067
3.730,-0.064
3.732,-0.062
3.734,-0.059
3.736,-0.057
3.738,-0.055
3.740,-0.054
3.742,-0.053
3.744,-0.054
3.746,-0.056
3.748,-0.059
3.750,-0.061
3.752,-0.063
3.754,-0.063
3.756,-0.060
3.758,-0.055
3.760,-0.047
3.762,-0.039
3.764,-0.030
3.766,-0.022
3.768,-0.016
3.770,-0.012
3.772,-0.010
3.774,-0.009
3.776,-0.009
3.778,-0.009
3.780,-0.009
3.782,-0.008
3.784,-0.006
3.786,-0.003
3.788,-0.001
3.790,0.001
3.792,0.002
3.794,0.001
3.796,-0.002
3.798,-0.005
3.800,-0.010
3.802,-0.014
3.804,-0.017
3.806,-0.019
3.808,-0.019
3.810,-0.017
3.812,-0.015
3.814,-0.012
3.816,-0.012
3.818,-0.015
3.820,-0.021
3.822,-0.030
3.824,-0.042
3.826,-0.055
3.828,-0.067
3.830,-0.077
3.832,-0.085
3.834,-0.089
3.836,-0.090
3.838,-0.091
3.840,-0.090
3.842,-0.089
3.844,-0.088
3.846,-0.086
3.848,-0.083
3.850,-0.078
3.852,-0.072
3.854,-0.066
3.856,-0.062
3.858,-0.060
3.860,-0.060
3.862,-0.063
3.864,-0.068
3.866,-0.074
3.868,-0.078
3.870,-0.080
3.872,-0.081
3.874,-0.080
3.876,-0.081
3.878,-0.084
3.880,-0.090
3.882,-0.098
3.884,-0.106
3.886,-0.108
3.888,-0.100
3.890,-0.076
3.892,-0.034
3.894,0.028
3.896,0.108
3.898,0.199
3.900,0.294
3.902,0.381
3.904,0.450
3.906,0.490
3.908,0.494
3.910,0.460
3.912,0.390
3.914,0.293
3.916,0.182
3.918,0.073
3.920,-0.022
3.922,-0.092
3.924,-0.135
3.926,-0.150
3.928,-0.145
3.930,-0.127
3.932,-0.104
3.934,-0.082
3.936,-0.067
3.938,-0.058
3.940,-0.055
3.942,-0.056
3.944,-0.060
3.946,-0.063
3.948,-0.063
3.950,-0.060
3.952,-0.053
3.954,-0.044
3.956,-0.033
3.958,-0.024
3.960,-0.018
3.962,-0.015
3.964,-0.017
3.966,-0.021
3.968,-0.026
3.970,-0.031
3.972,-0.033
3.974,-0.035
3.976,-0.035
3.978,-0.034
3.980,-0.035
3.982,-0.035
3.984,-0.036
3.986,-0.036
3.988,-0.034
3.990,-0.030
3.992,-0.024
3.994,-0.017
3.996,-0.010
3.998,-0.004
4.000,-0.000
4.002,0.001
4.004,0.000
4.006,-0.002
4.008,-0.004
4.010,-0.006
4.012,-0.006
4.014,-0.004
4.016,-0.001
4.018,0.002
4.020,0.006
4.022,0.009
4.024,0.011
4.026,0.012
4.028,0.013
4.030,0.014
4.032,0.016
4.034,0.018
4.036,0.022
4.038,0.027
4.040,0.032
4.042,0.036
4.044,0.040
4.046,0.042
4.048,0.043
4.050,0.043
4.052,0.043
4.054,0.043
4.056,0.044
4.058,0.045
4.060,0.048
4.062,0.051
4.064,0.054
4.066,0.058
4.068,0.062
4.070,0.066
4.072,0.070
4.074,0.074
4.076,0.078
4.078,0.082
4.080,0.086
4.082,0.090
4.084,0.094
4.086,0.098
4.088,0.103
4.090,0.107
4.092,0.111
4.094,0.114
4.096,0.118
4.098,0.122
4.100,0.126
4.102,0.132
4.104,0.138
4.106,0.144
4.108,0.151
4.110,0.159
4.112,0.166
4.114,0.174
4.116,0.181
4.118,0.189
4.120,0.196
4.122,0.203
4.124,0.210
4.126,0.218
4.128,0.225
4.130,0.233
4.132,0.240
4.134,0.247
4.136,0.254
4.138,0.261
4.140,0.267
4.142,0.273
4.144,0.278
4.146,0.282
4.148,0.287
4.150,0.290
4.152,0.292
4.154,0.294
4.156,0.295
4.158,0.295
4.160,0.295
4.162,0.295
4.164,0.294
4.166,0.292
4.168,0.289
4.170,0.285
4.172,0.279
4.174,0.272
4.176,0.264
4.178,0.256
4.180,0.247
4.182,0.238
4.184,0.229
4.186,0.218
4.188,0.207
4.190,0.195
4.192,0.181
4.194,0.167
4.196,0.151
4.198,0.134
4.200,0.117
4.202,0.100
4.204,0.083
4.206,0.067
4.208,0.052
4.210,0.039
4.212,0.027
4.214,0.016
4.216,0.006
4.218,-0.004
4.220,-0.013
4.222,-0.023
4.224,-0.032
4.226,-0.040
4.228,-0.048
4.230,-0.054
4.232,-0.060
4.234,-0.064
4.236,-0.067
4.238,-0.069
4.240,-0.071
4.242,-0.073
4.244,-0.075
4.246,-0.078
4.248,-0.081
4.250,-0.085
4.252,-0.088
4.254,-0.089
4.256,-0.090
4.258,-0.090
4.260,-0.089
4.262,-0.088
4.264,-0.087
4.266,-0.088
4.268,-0.090
4.270,-0.093
4.272,-0.097
4.274,-0.101
4.276,-0.105
4.278,-0.107
4.280,-0.108
4.282,-0.106
4.284,-0.103
4.286,-0.098
4.288,-0.092
4.290,-0.087
4.292,-0.084
4.294,-0.082
4.296,-0.082
4.298,-0.084
4.300,-0.086
4.302,-0.089
4.304,-0.091
4.306,-0.092
4.308,-0.092
4.310,-0.091
4.312,-0.089
4.314,-0.087
4.316,-0.083
4.318,-0.080
4.320,-0.076
4.322,-0.073
4.324,-0.070
4.326,-0.067
4.328,-0.066
4.330,-0.065
4.332,-0.066
4.334,-0.066
4.336,-0.068
4.338,-0.069
4.340,-0.071
4.342,-0.073
4.344,-0.074
4.346,-0.075
4.348,-0.074
4.350,-0.071
4.352,-0.068
4.354,-0.064
4.356,-0.060
4.358,-0.058
4.360,-0.058
4.362,-0.059
4.364,-0.062
4.366,-0.065
4.368,-0.067
4.370,-0.068
4.372,-0.068
4.374,-0.066
4.376,-0.063
4.378,-0.059
4.380,-0.055
4.382,-0.051
4.384,-0.049
4.386,-0.048
4.388,-0.048
4.390,-0.050
4.392,-0.053
4.394,-0.057
4.396,-0.062
4.398,-0.066
4.400,-0.070
4.402,-0.072
4.404,-0.073
4.406,-0.073
4.408,-0.071
4.410,-0.069
4.412,-0.067
4.414,-0.064
4.416,-0.061
4.418,-0.059
4.420,-0.056
4.422,-0.054
4.424,-0.053
4.426,-0.054
4.428,-0.057
4.430,-0.062
4.432,-0.068
4.434,-0.075
4.436,-0.082
4.438,-0.087
4.440,-0.090
4.442,-0.091
4.444,-0.090
4.446,-0.087
4.448,-0.082
4.450,-0.077
4.452,-0.072
4.454,-0.067
4.456,-0.063
4.458,-0.060
4.460,-0.059
4.462,-0.060
4.464,-0.063
4.466,-0.067
4.468,-0.072
4.470,-0.076
4.472,-0.079
4.474,-0.081
4.476,-0.081
4.478,-0.080
4.480,-0.079
4.482,-0.077
4.484,-0.076
4.486,-0.075
4.488,-0.075
4.490,-0.074
4.492,-0.074
4.494,-0.073
4.496,-0.072
4.498,-0.071
4.500,-0.069
4.502,-0.068
4.504,-0.067
4.506,-0.066
4.508,-0.066
4.510,-0.067
4.512,-0.069
4.514,-0.072
4.516,-0.075
4.518,-0.078
4.520,-0.079
4.522,-0.078
4.524,-0.075
4.526,-0.070
4.528,-0.065
4.530,-0.060
4.532,-0.056
4.534,-0.053
4.536,-0.051
4.538,-0.050
4.540,-0.050
4.542,-0.049
4.544,-0.048
4.546,-0.046
4.548,-0.044
4.550,-0.040
4.552,-0.036
4.554,-0.031
4.556,-0.026
4.558,-0.020
4.560,-0.016
4.562,-0.012
4.564,-0.010
4.566,-0.009
4.568,-0.009
4.570,-0.009
4.572,-0.008
4.574,-0.007
4.576,-0.006
4.578,-0.005
4.580,-0.005
4.582,-0.005
4.584,-0.008
4.586,-0.011
4.588,-0.015
4.590,-0.020
4.592,-0.026
4.594,-0.034
4.596,-0.043
4.598,-0.054
4.600,-0.065
4.602,-0.075
4.604,-0.084
4.606,-0.090
4.608,-0.093
4.610,-0.093
4.612,-0.092
4.614,-0.089
4.616,-0.087
4.618,-0.086
4.620,-0.085
4.622,-0.086
4.624,-0.086
4.626,-0.085
4.628,-0.083
4.630,-0.080
4.632,-0.076
4.634,-0.073
4.636,-0.073
4.638,-0.075
4.640,-0.080
4.642,-0.086
4.644,-0.093
4.646,-0.098
4.648,-0.100
4.650,-0.101
4.652,-0.100
4.654,-0.100
4.656,-0.103
4.658,-0.108
4.660,-0.114
4.662,-0.119
4.664,-0.118
4.666,-0.106
4.668,-0.078
4.670,-0.031
4.672,0.036
4.674,0.120
4.676,0.216
4.678,0.316
4.680,0.408
4.682,0.483
4.684,0.529
4.686,0.538
4.688,0.508
4.690,0.441
4.692,0.346
4.694,0.235
4.696,0.125
4.698,0.029
4.700,-0.045
4.702,-0.091
4.704,-0.111
4.706,-0.111
4.708,-0.098
4.710,-0.080
4.712,-0.063
4.714,-0.051
4.716,-0.044
4.718,-0.043
4.720,-0.047
4.722,-0.053
4.724,-0.058
4.726,-0.061
4.728,-0.060
4.730,-0.056
4.732,-0.050
4.734,-0.042
4.736,-0.035
4.738,-0.031
4.740,-0.029
4.742,-0.031
4.744,-0.035
4.746,-0.039
4.748,-0.043
4.750,-0.045
4.752,-0.045
4.754,-0.044
4.756,-0.042
4.758,-0.040
4.760,-0.040
4.762,-0.040
4.764,-0.042
4.766,-0.042
4.768,-0.042
4.770,-0.039
4.772,-0.035
4.774,-0.029
4.776,-0.023
4.778,-0.018
4.780,-0.015
4.782,-0.013
4.784,-0.012
4.786,-0.013
4.788,-0.013
4.790,-0.012
4.792,-0.012
4.794,-0.011
4.796,-0.011
4.798,-0.011
4.800,-0.011
4.802,-0.011
4.804,-0.010
4.806,-0.007
4.808,-0.003
4.810,0.003
4.812,0.010
4.814,0.016
4.816,0.021
4.818,0.024
4.820,0.025
4.822,0.025
4.824,0.023
4.826,0.021
4.828,0.020
4.830,0.021
4.832,0.024
4.834,0.029
4.836,0.035
4.838,0.042
4.840,0.049
4.842,0.056
4.844,0.061
4.846,0.064
4.848,0.066
4.850,0.068
4.852,0.068
4.854,0.069
4.856,0.071
4.858,0.075
4.860,0.079
4.862,0.084
4.864,0.091
4.866,0.097
4.868,0.102
4.870,0.107
4.872,0.111
4.874,0.114
4.876,0.117
4.878,0.120
4.880,0.124
4.882,0.128
4.884,0.134
4.886,0.141
4.888,0.148
4.890,0.156
4.892,0.164
4.894,0.172
4.896,0.179
4.898,0.186
4.900,0.193
4.902,0.200
4.904,0.207
4.906,0.213
4.908,0.220
4.910,0.227
4.912,0.233
4.914,0.239
4.916,0.245
4.918,0.251
4.920,0.258
4.922,0.264
4.924,0.270
4.926,0.276
4.928,0.280
4.930,0.283
4.932,0.285
4.934,0.285
4.936,0.285
4.938,0.284
4.940,0.282
4.942,0.280
4.944,0.276
4.946,0.272
4.948,0.267
4.950,0.261
4.952,0.254
4.954,0.246
4.956,0.239
4.958,0.230
4.960,0.221
4.962,0.211
4.964,0.199
4.966,0.185
4.968,0.170
4.970,0.154
4.972,0.137
4.974,0.120
4.976,0.104
4.978,0.087
4.980,0.070
4.982,0.054
4.984,0.038
4.986,0.022
4.988,0.009
4.990,-0.003
4.992,-0.013
4.994,-0.021
4.996,-0.027
4.998,-0.033
5.000,-0.038
5.002,-0.043
5.004,-0.048
5.006,-0.052
5.008,-0.055
5.010,-0.058
5.012,-0.061
5.014,-0.064
5.016,-0.067
5.018,-0.071
5.020,-0.074
5.022,-0.078
5.024,-0.081
5.026,-0.083
5.028,-0.085
5.030,-0.086
5.032,-0.087
5.034,-0.088
5.036,-0.089
5.038,-0.090
5.040,-0.091
5.042,-0.092
5.044,-0.092
5.046,-0.093
5.048,-0.094
5.050,-0.096
5.052,-0.098
5.054,-0.101
5.056,-0.103
5.058,-0.104
5.060,-0.103
5.062,-0.102
5.064,-0.101
5.066,-0.099
5.068,-0.099
5.070,-0.099
5.072,-0.100
5.074,-0.102
5.076,-0.103
5.078,-0.104
5.080,-0.103
5.082,-0.102
5.084,-0.099
5.086,-0.095
5.088,-0.091
5.090,-0.087
5.092,-0.083
5.094,-0.081
5.096,-0.079
5.098,-0.078
5.100,-0.079
5.102,-0.080
5.104,-0.081
5.106,-0.082
5.108,-0.082
5.110,-0.080
5.112,-0.077
5.114,-0.073
5.116,-0.069
5.118,-0.065
5.120,-0.062
5.122,-0.059
5.124,-0.058
5.126,-0.058
5.128,-0.058
5.130,-0.059
5.132,-0.059
5.134,-0.060
5.136,-0.061
5.138,-0.062
5.140,-0.063
5.142,-0.063
5.144,-0.064
5.146,-0.064
5.148,-0.063
5.150,-0.063
5.152,-0.062
5.154,-0.062
5.156,-0.063
5.158,-0.065
5.160,-0.068
5.162,-0.071
5.164,-0.074
5.166,-0.077
5.168,-0.079
5.170,-0.080
5.172,-0.078
5.174,-0.075
5.176,-0.071
5.178,-0.065
5.180,-0.060
5.182,-0.056
5.184,-0.054
5.186,-0.053
5.188,-0.054
5.190,-0.057
5.192,-0.060
5.194,-0.063
5.196,-0.065
5.198,-0.065
5.200,-0.065
5.202,-0.064
5.204,-0.062
5.206,-0.062
5.208,-0.063
5.210,-0.065
5.212,-0.068
5.214,-0.072
5.216,-0.075
5.218,-0.078
5.220,-0.079
5.222,-0.078
5.224,-0.076
5.226,-0.071
5.228,-0.066
5.230,-0.061
5.232,-0.057
5.234,-0.056
5.236,-0.056
5.238,-0.058
5.240,-0.062
5.242,-0.066
5.244,-0.070
5.246,-0.073
5.248,-0.075
5.250,-0.077
5.252,-0.077
5.254,-0.077
5.256,-0.077
5.258,-0.078
5.260,-0.079
5.262,-0.081
5.264,-0.083
5.266,-0.084
5.268,-0.085
5.270,-0.085
5.272,-0.084
5.274,-0.081
5.276,-0.077
5.278,-0.073
5.280,-0.068
5.282,-0.063
5.284,-0.059
5.286,-0.057
5.288,-0.055
5.290,-0.055
5.292,-0.057
5.294,-0.060
5.296,-0.063
5.298,-0.067
5.300,-0.071
5.302,-0.074
5.304,-0.075
5.306,-0.075
5.308,-0.074
5.310,-0.073
5.312,-0.072
5.314,-0.073
5.316,-0.074
5.318,-0.075
5.320,-0.077
5.322,-0.077
5.324,-0.075
5.326,-0.072
5.328,-0.068
5.330,-0.063
5.332,-0.057
5.334,-0.051
5.336,-0.046
5.338,-0.042
5.340,-0.039
5.342,-0.037
5.344,-0.038
5.346,-0.039
5.348,-0.041
5.350,-0.043
5.352,-0.044
5.354,-0.042
5.356,-0.038
5.358,-0.031
5.360,-0.022
5.362,-0.014
5.364,-0.007
5.366,-0.001
5.368,0.001
5.370,0.000
5.372,-0.002
5.374,-0.007
5.376,-0.011
5.378,-0.015
5.380,-0.018
5.382,-0.019
5.384,-0.019
5.386,-0.018
5.388,-0.016
5.390,-0.014
5.392,-0.013
5.394,-0.014
5.396,-0.017
5.398,-0.024
5.400,-0.033
5.402,-0.043
5.404,-0.055
5.406,-0.065
5.408,-0.073
5.410,-0.078
5.412,-0.080
5.414,-0.081
5.416,-0.081
5.418,-0.081
5.420,-0.083
5.422,-0.086
5.424,-0.090
5.426,-0.094
5.428,-0.096
5.430,-0.096
5.432,-0.092
5.434,-0.087
5.436,-0.081
5.438,-0.076
5.440,-0.075
5.442,-0.077
5.444,-0.083
5.446,-0.090
5.448,-0.096
5.450,-0.101
5.452,-0.102
5.454,-0.101
5.456,-0.100
5.458,-0.102
5.460,-0.108
5.462,-0.117
5.464,-0.127
5.466,-0.131
5.468,-0.126
5.470,-0.103
5.472,-0.059
5.474,0.008
5.476,0.097
5.478,0.201
5.480,0.313
5.482,0.422
5.484,0.515
5.486,0.578
5.488,0.603
5.490,0.583
5.492,0.521
5.494,0.423
5.496,0.304
5.498,0.182
5.500,0.073
5.502,-0.012
5.504,-0.065
5.506,-0.088
5.508,-0.088
5.510,-0.073
5.512,-0.053
5.514,-0.036
5.516,-0.025
5.518,-0.021
5.520,-0.024
5.522,-0.031
5.524,-0.040
5.526,-0.048
5.528,-0.053
5.530,-0.053
5.532,-0.050
5.534,-0.042
5.536,-0.034
5.538,-0.027
5.540,-0.023
5.542,-0.024
5.544,-0.029
5.546,-0.037
5.548,-0.045
5.550,-0.051
5.552,-0.054
5.554,-0.052
5.556,-0.048
5.558,-0.042
5.560,-0.037
5.562,-0.033
5.564,-0.032
5.566,-0.031
5.568,-0.031
5.570,-0.029
5.572,-0.026
5.574,-0.021
5.576,-0.015
5.578,-0.010
5.580,-0.007
5.582,-0.007
5.584,-0.010
5.586,-0.014
5.588,-0.019
5.590,-0.023
5.592,-0.024
5.594,-0.021
5.596,-0.016
5.598,-0.009
5.600,-0.002
5.602,0.004
5.604,0.008
5.606,0.009
5.608,0.009
5.610,0.008
5.612,0.008
5.614,0.007
5.616,0.008
5.618,0.010
5.620,0.012
5.622,0.015
5.624,0.019
5.626,0.023
5.628,0.028
5.630,0.033
5.632,0.038
5.634,0.042
5.636,0.045
5.638,0.047
5.640,0.048
5.642,0.048
5.644,0.049
5.646,0.050
5.648,0.052
5.650,0.055
5.652,0.057
5.654,0.061
5.656,0.065
5.658,0.071
5.660,0.077
5.662,0.083
5.664,0.090
5.666,0.097
5.668,0.103
5.670,0.108
5.672,0.112
5.674,0.116
5.676,0.118
5.678,0.121
5.680,0.124
5.682,0.129
5.684,0.135
5.686,0.142
5.688,0.151
5.690,0.159
5.692,0.168
5.694,0.176
5.696,0.183
5.698,0.189
5.700,0.195
5.702,0.200
5.704,0.205
5.706,0.211
5.708,0.217
5.710,0.223
5.712,0.229
5.714,0.236
5.716,0.243
5.718,0.249
5.720,0.256
5.722,0.262
5.724,0.267
5.726,0.272
5.728,0.276
5.730,0.279
5.732,0.283
5.734,0.286
5.736,0.288
5.738,0.290
5.740,0.291
5.742,0.291
5.744,0.289
5.746,0.285
5.748,0.279
5.750,0.272
5.752,0.265
5.754,0.258
5.756,0.252
5.758,0.247
5.760,0.243
5.762,0.238
5.764,0.232
5.766,0.224
5.768,0.213
5.770,0.199
5.772,0.181
5.774,0.162
5.776,0.142
5.778,0.122
5.780,0.103
5.782,0.086
5.784,0.072
5.786,0.061
5.788,0.052
5.790,0.044
5.792,0.037
5.794,0.029
5.796,0.021
5.798,0.010
5.800,-0.001
5.802,-0.014
5.804,-0.027
5.806,-0.039
5.808,-0.051
5.810,-0.060
5.812,-0.066
5.814,-0.070
5.816,-0.072
5.818,-0.074
5.820,-0.075
5.822,-0.077
5.824,-0.080
5.826,-0.082
5.828,-0.084
5.830,-0.085
5.832,-0.085
5.834,-0.084
5.836,-0.083
5.838,-0.081
5.840,-0.080
5.842,-0.079
5.844,-0.079
5.846,-0.081
5.848,-0.084
5.850,-0.087
5.852,-0.092
5.854,-0.096
5.856,-0.099
5.858,-0.100
5.860,-0.099
5.862,-0.095
5.864,-0.091
5.866,-0.086
5.868,-0.081
5.870,-0.079
5.872,-0.078
5.874,-0.080
5.876,-0.082
5.878,-0.085
5.880,-0.088
5.882,-0.089
5.884,-0.090
5.886,-0.090
5.888,-0.090
5.890,-0.089
5.892,-0.089
5.894,-0.090
5.896,-0.091
5.898,-0.092
5.900,-0.092
5.902,-0.090
5.904,-0.087
5.906,-0.083
5.908,-0.077
5.910,-0.072
5.912,-0.069
5.914,-0.067
5.916,-0.067
5.918,-0.069
5.920,-0.072
5.922,-0.075
5.924,-0.078
5.926,-0.080
5.928,-0.081
5.930,-0.081
5.932,-0.080
5.934,-0.078
5.936,-0.077
5.938,-0.075
5.940,-0.075
5.942,-0.076
5.944,-0.078
5.946,-0.079
5.948,-0.079
5.950,-0.077
5.952,-0.073
5.954,-0.066
5.956,-0.059
5.958,-0.053
5.960,-0.048
5.962,-0.047
5.964,-0.048
5.966,-0.052
5.968,-0.057
5.970,-0.062
5.972,-0.065
5.974,-0.067
5.976,-0.068
5.978,-0.067
5.980,-0.065
5.982,-0.063
5.984,-0.062
5.986,-0.061
5.988,-0.062
5.990,-0.064
5.992,-0.066
5.994,-0.069
5.996,-0.071
5.998,-0.072
6.000,-0.072
6.002,-0.071
6.004,-0.069
6.006,-0.068
6.008,-0.066
6.010,-0.066
6.012,-0.067
6.014,-0.069
6.016,-0.071
6.018,-0.074
6.020,-0.077
6.022,-0.078
6.024,-0.079
6.026,-0.079
6.028,-0.078
6.030,-0.077
6.032,-0.077
6.034,-0.079
6.036,-0.082
6.038,-0.086
6.040,-0.090
6.042,-0.093
6.044,-0.094
6.046,-0.092
6.048,-0.088
6.050,-0.083
6.052,-0.077
6.054,-0.073
6.056,-0.069
6.058,-0.068
6.060,-0.068
6.062,-0.070
6.064,-0.073
6.066,-0.076
6.068,-0.080
6.070,-0.083
6.072,-0.084
6.074,-0.083
6.076,-0.079
6.078,-0.073
6.080,-0.066
6.082,-0.060
6.084,-0.056
6.086,-0.055
6.088,-0.057
6.090,-0.062
6.092,-0.068
6.094,-0.073
6.096,-0.078
6.098,-0.081
6.100,-0.083
6.102,-0.084
6.104,-0.084
6.106,-0.083
6.108,-0.082
6.110,-0.080
6.112,-0.078
6.114,-0.075
6.116,-0.073
6.118,-0.071
6.120,-0.070
6.122,-0.071
6.124,-0.072
6.126,-0.073
6.128,-0.075
6.130,-0.078
6.132,-0.080
6.134,-0.083
6.136,-0.085
6.138,-0.086
6.140,-0.087
6.142,-0.087
6.144,-0.087
6.146,-0.085
6.148,-0.083
6.150,-0.081
6.152,-0.079
6.154,-0.076
6.156,-0.072
6.158,-0.069
6.160,-0.065
6.162,-0.061
6.164,-0.057
6.166,-0.054
6.168,-0.052
6.170,-0.051
6.172,-0.051
6.174,-0.051
6.176,-0.051
6.178,-0.050
6.180,-0.049
6.182,-0.046
6.184,-0.041
6.186,-0.035
6.188,-0.027
6.190,-0.017
6.192,-0.007
6.194,0.003
6.196,0.011
6.198,0.018
6.200,0.021
6.202,0.022
6.204,0.019
6.206,0.015
6.208,0.010
6.210,0.005
6.212,0.000
6.214,-0.004
6.216,-0.007
6.218,-0.010
6.220,-0.012
6.222,-0.013
6.224,-0.014
6.226,-0.016
6.228,-0.020
6.230,-0.026
6.232,-0.035
6.234,-0.048
6.236,-0.061
6.238,-0.075
6.240,-0.086
6.242,-0.092
6.244,-0.093
6.246,-0.089
6.248,-0.083
6.250,-0.076
6.252,-0.071
6.254,-0.069
6.256,-0.071
6.258,-0.076
6.260,-0.082
6.262,-0.087
6.264,-0.089
6.266,-0.088
6.268,-0.085
6.270,-0.080
6.272,-0.076
6.274,-0.075
6.276,-0.077
6.278,-0.081
6.280,-0.087
6.282,-0.092
6.284,-0.097
6.286,-0.100
6.288,-0.102
6.290,-0.105
6.292,-0.110
6.294,-0.115
6.296,-0.121
6.298,-0.122
6.300,-0.116
6.302,-0.097
6.304,-0.061
6.306,-0.004
6.308,0.073
6.310,0.169
6.312,0.277
6.314,0.388
6.316,0.491
6.318,0.572
6.320,0.620
6.322,0.626
6.324,0.586
6.326,0.505
6.328,0.394
6.330,0.269
6.332,0.148
6.334,0.044
6.336,-0.031
6.338,-0.075
6.340,-0.092
6.342,-0.088
6.344,-0.074
6.346,-0.058
6.348,-0.046
6.350,-0.040
6.352,-0.040
6.354,-0.045
6.356,-0.051
6.358,-0.055
6.360,-0.056
6.362,-0.053
6.364,-0.045
6.366,-0.035
6.368,-0.024
6.370,-0.016
6.372,-0.011
6.374,-0.013
6.376,-0.020
6.378,-0.030
6.380,-0.042
6.382,-0.052
6.384,-0.057
6.386,-0.057
6.388,-0.052
6.390,-0.044
6.392,-0.036
6.394,-0.030
6.396,-0.027
6.398,-0.027
6.400,-0.028
6.402,-0.028
6.404,-0.025
6.406,-0.018
6.408,-0.008
6.410,0.002
6.412,0.012
6.414,0.018
6.416,0.021
6.418,0.018
6.420,0.014
6.422,0.008
6.424,0.003
6.426,-0.000
6.428,-0.000
6.430,0.002
6.432,0.006
6.434,0.010
6.436,0.014
6.438,0.017
6.440,0.019
6.442,0.019
6.444,0.019
6.446,0.020
6.448,0.021
6.450,0.023
6.452,0.026
6.454,0.030
6.456,0.034
6.458,0.038
6.460,0.041
6.462,0.043
6.464,0.044
6.466,0.045
6.468,0.046
6.470,0.048
6.472,0.050
6.474,0.053
6.476,0.057
6.478,0.062
6.480,0.067
6.482,0.072
6.484,0.077
6.486,0.080
6.488,0.083
6.490,0.084
6.492,0.086
6.494,0.087
6.496,0.089
6.498,0.092
6.500,0.097
6.502,0.103
6.504,0.111
6.506,0.120
6.508,0.130
6.510,0.140
6.512,0.149
6.514,0.157
6.516,0.164
6.518,0.169
6.520,0.172
6.522,0.175
6.524,0.178
6.526,0.181
6.528,0.184
6.530,0.187
6.532,0.192
6.534,0.198
6.536,0.206
6.538,0.214
6.540,0.224
6.542,0.234
6.544,0.244
6.546,0.253
6.548,0.262
6.550,0.269
6.552,0.276
6.554,0.283
6.556,0.289
6.558,0.295
6.560,0.301
6.562,0.305
6.564,0.308
6.566,0.310
6.568,0.311
6.570,0.311
6.572,0.310
6.574,0.308
6.576,0.306
6.578,0.303
6.580,0.300
6.582,0.295
6.584,0.289
6.586,0.282
6.588,0.274
6.590,0.265
6.592,0.255
6.594,0.245
6.596,0.234
6.598,0.225
6.600,0.215
6.602,0.206
6.604,0.196
6.606,0.186
6.608,0.174
6.610,0.160
6.612,0.144
6.614,0.126
6.616,0.108
6.618,0.088
6.620,0.070
6.622,0.052
6.624,0.037
6.626,0.023
6.628,0.012
6.630,0.003
6.632,-0.004
6.634,-0.009
6.636,-0.014
6.638,-0.019
6.640,-0.023
6.642,-0.028
6.644,-0.034
6.646,-0.039
6.648,-0.044
6.650,-0.049
6.652,-0.052
6.654,-0.056
6.656,-0.059
6.658,-0.062
6.660,-0.065
6.662,-0.069
6.664,-0.073
6.666,-0.077
6.668,-0.079
6.670,-0.081
6.672,-0.081
6.674,-0.080
6.676,-0.078
6.678,-0.075
6.680,-0.073
6.682,-0.072
6.684,-0.071
6.686,-0.072
6.688,-0.073
6.690,-0.075
6.692,-0.076
6.694,-0.077
6.696,-0.076
6.698,-0.075
6.700,-0.073
6.702,-0.071
6.704,-0.070
6.706,-0.070
6.708,-0.072
6.710,-0.075
6.712,-0.078
6.714,-0.081
6.716,-0.084
6.718,-0.085
6.720,-0.085
6.722,-0.083
6.724,-0.080
6.726,-0.076
6.728,-0.071
6.730,-0.066
6.732,-0.062
6.734,-0.059
6.736,-0.058
6.738,-0.058
6.740,-0.059
6.742,-0.060
6.744,-0.060
6.746,-0.060
6.748,-0.058
6.750,-0.057
6.752,-0.055
6.754,-0.054
6.756,-0.055
6.758,-0.056
6.760,-0.057
6.762,-0.057
6.764,-0.057
6.766,-0.057
6.768,-0.055
6.770,-0.054
6.772,-0.052
6.774,-0.052
6.776,-0.052
6.778,-0.052
6.780,-0.053
6.782,-0.053
6.784,-0.053
6.786,-0.053
6.788,-0.052
6.790,-0.051
6.792,-0.051
6.794,-0.050
6.796,-0.051
6.798,-0.052
6.800,-0.053
6.802,-0.055
6.804,-0.057
6.806,-0.059
6.808,-0.061
6.810,-0.062
6.812,-0.062
6.814,-0.060
6.816,-0.058
6.818,-0.056
6.820,-0.053
6.822,-0.050
6.824,-0.049
6.826,-0.048
6.828,-0.048
6.830,-0.048
6.832,-0.049
6.834,-0.050
6.836,-0.050
6.838,-0.051
6.840,-0.052
6.842,-0.054
6.844,-0.056
6.846,-0.059
6.848,-0.063
6.850,-0.066
6.852,-0.067
6.854,-0.067
6.856,-0.066
6.858,-0.062
6.860,-0.058
6.862,-0.054
6.864,-0.051
6.866,-0.049
6.868,-0.048
6.870,-0.049
6.872,-0.050
6.874,-0.052
6.876,-0.054
6.878,-0.058
6.880,-0.061
6.882,-0.065
6.884,-0.068
6.886,-0.070
6.888,-0.072
6.890,-0.072
6.892,-0.072
6.894,-0.071
6.896,-0.070
6.898,-0.069
6.900,-0.067
6.902,-0.065
6.904,-0.062
6.906,-0.059
6.908,-0.055
6.910,-0.053
6.912,-0.051
6.914,-0.052
6.916,-0.053
6.918,-0.056
6.920,-0.060
6.922,-0.063
6.924,-0.066
6.926,-0.069
6.928,-0.070
6.930,-0.070
6.932,-0.070
6.934,-0.068
6.936,-0.066
6.938,-0.063
6.940,-0.059
6.942,-0.057
6.944,-0.055
6.946,-0.054
6.948,-0.055
6.950,-0.057
6.952,-0.060
6.954,-0.062
6.956,-0.064
6.958,-0.065
6.960,-0.065
6.962,-0.065
6.964,-0.066
6.966,-0.066
6.968,-0.066
6.970,-0.067
6.972,-0.068
6.974,-0.069
6.976,-0.070
6.978,-0.070
6.980,-0.068
6.982,-0.064
6.984,-0.059
6.986,-0.053
6.988,-0.047
6.990,-0.042
6.992,-0.040
6.994,-0.041
6.996,-0.045
6.998,-0.051
7.000,-0.058
7.002,-0.065
7.004,-0.071
7.006,-0.074
7.008,-0.075
7.010,-0.073
7.012,-0.069
7.014,-0.064
7.016,-0.058
7.018,-0.054
7.020,-0.052
7.022,-0.053
7.024,-0.055
7.026,-0.059
7.028,-0.063
7.030,-0.066
7.032,-0.067
7.034,-0.067
7.036,-0.065
7.038,-0.063
7.040,-0.059
7.042,-0.057
7.044,-0.055
7.046,-0.054
7.048,-0.055
7.050,-0.057
7.052,-0.060
7.054,-0.062
7.056,-0.064
7.058,-0.066
7.060,-0.066
7.062,-0.065
7.064,-0.063
7.066,-0.060
7.068,-0.058
7.070,-0.056
7.072,-0.054
7.074,-0.052
7.076,-0.050
7.078,-0.048
7.080,-0.047
7.082,-0.046
7.084,-0.045
7.086,-0.045
7.088,-0.046
7.090,-0.047
7.092,-0.048
7.094,-0.050
7.096,-0.052
7.098,-0.054
7.100,-0.056
7.102,-0.058
7.104,-0.061
7.106,-0.063
7.108,-0.064
7.110,-0.065
7.112,-0.065
7.114,-0.065
7.116,-0.065
7.118,-0.064
7.120,-0.064
7.122,-0.065
7.124,-0.064
7.126,-0.064
7.128,-0.062
7.130,-0.060
7.132,-0.057
7.134,-0.053
7.136,-0.050
7.138,-0.047
7.140,-0.044
7.142,-0.043
7.144,-0.042
7.146,-0.043
7.148,-0.046
7.150,-0.050
7.152,-0.054
7.154,-0.059
7.156,-0.063
7.158,-0.066
7.160,-0.066
7.162,-0.064
7.164,-0.060
7.166,-0.056
7.168,-0.051
7.170,-0.047
7.172,-0.045
7.174,-0.043
7.176,-0.043
7.178,-0.043
7.180,-0.043
7.182,-0.043
7.184,-0.043
7.186,-0.044
7.188,-0.044
7.190,-0.045
7.192,-0.046
7.194,-0.047
7.196,-0.047
7.198,-0.048
7.200,-0.049
7.202,-0.050
7.204,-0.053
7.206,-0.055
7.208,-0.058
7.210,-0.060
7.212,-0.061
7.214,-0.061
7.216,-0.060
7.218,-0.058
7.220,-0.057
7.222,-0.055
7.224,-0.053
7.226,-0.051
7.228,-0.049
7.230,-0.046
7.232,-0.043
7.234,-0.041
7.236,-0.039
7.238,-0.039
7.240,-0.039
7.242,-0.040
7.244,-0.041
7.246,-0.041
7.248,-0.040
7.250,-0.036
7.252,-0.030
7.254,-0.024
7.256,-0.017
7.258,-0.012
7.260,-0.008
7.262,-0.005
7.264,-0.003
7.266,-0.002
7.268,-0.000
7.270,0.002
7.272,0.005
7.274,0.009
7.276,0.013
7.278,0.017
7.280,0.021
7.282,0.025
7.284,0.027
7.286,0.027
7.288,0.026
7.290,0.023
7.292,0.019
7.294,0.015
7.296,0.011
7.298,0.009
7.300,0.008
7.302,0.008
7.304,0.008
7.306,0.006
7.308,0.001
7.310,-0.008
7.312,-0.019
7.314,-0.033
7.316,-0.046
7.318,-0.056
7.320,-0.063
7.322,-0.066
7.324,-0.065
7.326,-0.061
7.328,-0.056
7.330,-0.053
7.332,-0.052
7.334,-0.054
7.336,-0.057
7.338,-0.062
7.340,-0.066
7.342,-0.067
7.344,-0.066
7.346,-0.062
7.348,-0.057
7.350,-0.052
7.352,-0.049
7.354,-0.050
7.356,-0.052
7.358,-0.055
7.360,-0.058
7.362,-0.060
7.364,-0.060
7.366,-0.061
7.368,-0.064
7.370,-0.070
7.372,-0.080
7.374,-0.093
7.376,-0.104
7.378,-0.108
7.380,-0.098
7.382,-0.069
7.384,-0.016
7.386,0.061
7.388,0.161
7.390,0.277
7.392,0.398
7.394,0.512
7.396,0.604
7.398,0.662
7.400,0.676
7.402,0.643
7.404,0.565
7.406,0.455
7.408,0.327
7.410,0.201
7.412,0.091
7.414,0.008
7.416,-0.043
7.418,-0.065
7.420,-0.065
7.422,-0.054
7.424,-0.039
7.426,-0.026
7.428,-0.019
7.430,-0.017
7.432,-0.020
7.434,-0.025
7.436,-0.030
7.438,-0.033
7.440,-0.033
7.442,-0.029
7.444,-0.022
7.446,-0.014
7.448,-0.006
7.450,-0.000
7.452,0.002
7.454,-0.001
7.456,-0.008
7.458,-0.017
7.460,-0.024
7.462,-0.030
7.464,-0.031
7.466,-0.030
7.468,-0.027
7.470,-0.024
7.472,-0.023
7.474,-0.024
7.476,-0.026
7.478,-0.027
7.480,-0.025
7.482,-0.020
7.484,-0.011
7.486,0.001
7.488,0.013
7.490,0.023
7.492,0.029
7.494,0.030
7.496,0.028
7.498,0.023
7.500,0.019
7.502,0.016
7.504,0.014
7.506,0.015
7.508,0.016
7.510,0.017
7.512,0.017
7.514,0.017
7.516,0.016
7.518,0.015
7.520,0.015
7.522,0.016
7.524,0.020
7.526,0.026
7.528,0.032
7.530,0.039
7.532,0.045
7.534,0.050
7.536,0.051
7.538,0.051
7.540,0.049
7.542,0.046
7.544,0.044
7.546,0.042
7.548,0.043
7.550,0.046
7.552,0.051
7.554,0.057
7.556,0.064
7.558,0.072
7.560,0.078
7.562,0.083
7.564,0.087
7.566,0.089
7.568,0.091
7.570,0.091
7.572,0.092
7.574,0.094
7.576,0.096
7.578,0.099
7.580,0.103
7.582,0.107
7.584,0.112
7.586,0.117
7.588,0.124
7.590,0.132
7.592,0.141
7.594,0.150
7.596,0.159
7.598,0.167
7.600,0.173
7.602,0.177
7.604,0.179
7.606,0.180
7.608,0.182
7.610,0.185
7.612,0.189
7.614,0.194
7.616,0.201
7.618,0.209
7.620,0.217
7.622,0.224
7.624,0.231
7.626,0.237
7.628,0.242
7.630,0.246
7.632,0.250
7.634,0.254
7.636,0.258
7.638,0.263
7.640,0.267
7.642,0.270
7.644,0.274
7.646,0.276
7.648,0.277
7.650,0.277
7.652,0.277
7.654,0.277
7.656,0.278
7.658,0.279
7.660,0.282
7.662,0.284
7.664,0.286
7.666,0.287
7.668,0.285
7.670,0.281
7.672,0.275
7.674,0.266
7.676,0.256
7.678,0.245
7.680,0.233
7.682,0.222
7.684,0.212
7.686,0.201
7.688,0.192
7.690,0.183
7.692,0.175
7.694,0.166
7.696,0.156
7.698,0.144
7.700,0.131
7.702,0.116
7.704,0.100
7.706,0.084
7.708,0.068
7.710,0.053
7.712,0.039
7.714,0.026
7.716,0.014
7.718,0.004
7.720,-0.005
7.722,-0.013
7.724,-0.019
7.726,-0.023
7.728,-0.027
7.730,-0.031
7.732,-0.034
7.734,-0.037
7.736,-0.041
7.738,-0.046
7.740,-0.050
7.742,-0.053
7.744,-0.056
7.746,-0.059
7.748,-0.061
7.750,-0.062
7.752,-0.064
7.754,-0.065
7.756,-0.067
7.758,-0.069
7.760,-0.070
7.762,-0.071
7.764,-0.071
7.766,-0.071
7.768,-0.070
7.770,-0.069
7.772,-0.068
7.774,-0.067
7.776,-0.066
7.778,-0.066
7.780,-0.066
7.782,-0.066
7.784,-0.066
7.786,-0.067
7.788,-0.067
7.790,-0.068
7.792,-0.068
7.794,-0.067
7.796,-0.066
7.798,-0.065
7.800,-0.063
7.802,-0.062
7.804,-0.061
7.806,-0.061
7.808,-0.061
7.810,-0.061
7.812,-0.060
7.814,-0.057
7.816,-0.053
7.818,-0.048
7.820,-0.042
7.822,-0.037
7.824,-0.034
7.826,-0.033
7.828,-0.033
7.830,-0.036
7.832,-0.039
7.834,-0.043
7.836,-0.047
7.838,-0.049
7.840,-0.050
7.842,-0.050
7.844,-0.048
7.846,-0.044
7.848,-0.040
7.850,-0.036
7.852,-0.033
7.854,-0.031
7.856,-0.030
7.858,-0.031
7.860,-0.034
7.862,-0.037
7.864,-0.040
7.866,-0.043
7.868,-0.044
7.870,-0.045
7.872,-0.045
7.874,-0.044
7.876,-0.044
7.878,-0.044
7.880,-0.044
7.882,-0.045
7.884,-0.046
7.886,-0.046
7.888,-0.046
7.890,-0.046
7.892,-0.045
7.894,-0.044
7.896,-0.042
7.898,-0.041
7.900,-0.039
7.902,-0.037
7.904,-0.036
7.906,-0.035
7.908,-0.034
7.910,-0.035
7.912,-0.036
7.914,-0.039
7.916,-0.044
7.918,-0.048
7.920,-0.053
7.922,-0.057
7.924,-0.059
7.926,-0.061
7.928,-0.061
7.930,-0.060
7.932,-0.058
7.934,-0.056
7.936,-0.053
7.938,-0.051
7.940,-0.048
7.942,-0.045
7.944,-0.044
7.946,-0.042
7.948,-0.042
7.950,-0.042
7.952,-0.043
7.954,-0.043
7.956,-0.044
7.958,-0.046
7.960,-0.047
7.962,-0.049
7.964,-0.051
7.966,-0.053
7.968,-0.056
7.970,-0.058
7.972,-0.059
7.974,-0.060
7.976,-0.060
7.978,-0.060
7.980,-0.059
7.982,-0.058
7.984,-0.057
7.986,-0.057
7.988,-0.057
7.990,-0.058
7.992,-0.058
7.994,-0.059
7.996,-0.059
7.998,-0.059
8.000,-0.058
8.002,-0.058
8.004,-0.058
8.006,-0.060
8.008,-0.062
8.010,-0.064
8.012,-0.066
8.014,-0.067
8.016,-0.067
8.018,-0.065
8.020,-0.063
8.022,-0.061
8.024,-0.058
8.026,-0.056
8.028,-0.055
8.030,-0.055
8.032,-0.056
8.034,-0.058
8.036,-0.061
8.038,-0.064
8.040,-0.067
8.042,-0.070
8.044,-0.071
8.046,-0.070
8.048,-0.067
8.050,-0.064
8.052,-0.060
8.054,-0.057
8.056,-0.055
8.058,-0.054
8.060,-0.054
8.062,-0.055
8.064,-0.056
8.066,-0.056
8.068,-0.056
8.070,-0.055
8.072,-0.053
8.074,-0.052
8.076,-0.050
8.078,-0.050
8.080,-0.050
8.082,-0.051
8.084,-0.052
8.086,-0.055
8.088,-0.057
8.090,-0.058
8.092,-0.058
8.094,-0.058
8.096,-0.057
8.098,-0.055
8.100,-0.053
8.102,-0.052
8.104,-0.052
8.106,-0.053
8.108,-0.055
8.110,-0.058
8.112,-0.061
8.114,-0.064
8.116,-0.066
8.118,-0.067
8.120,-0.068
8.122,-0.068
8.124,-0.067
8.126,-0.067
8.128,-0.066
8.130,-0.066
8.132,-0.066
8.134,-0.067
8.136,-0.067
8.138,-0.066
8.140,-0.065
8.142,-0.063
8.144,-0.060
8.146,-0.058
8.148,-0.057
8.150,-0.056
8.152,-0.056
8.154,-0.056
8.156,-0.056
8.158,-0.056
8.160,-0.055
8.162,-0.053
8.164,-0.051
8.166,-0.048
8.168,-0.045
8.170,-0.043
8.172,-0.042
8.174,-0.042
8.176,-0.044
8.178,-0.047
8.180,-0.051
8.182,-0.055
8.184,-0.059
8.186,-0.061
8.188,-0.062
8.190,-0.062
8.192,-0.061
8.194,-0.060
8.196,-0.059
8.198,-0.058
8.200,-0.057
8.202,-0.056
8.204,-0.055
8.206,-0.055
8.208,-0.054
8.210,-0.054
8.212,-0.054
8.214,-0.054
8.216,-0.055
8.218,-0.055
8.220,-0.056
8.222,-0.056
8.224,-0.057
8.226,-0.058
8.228,-0.058
8.230,-0.058
8.232,-0.058
8.234,-0.057
8.236,-0.055
8.238,-0.054
8.240,-0.054
8.242,-0.054
8.244,-0.055
8.246,-0.056
8.248,-0.058
8.250,-0.059
8.252,-0.060
8.254,-0.060
8.256,-0.060
8.258,-0.059
8.260,-0.058
8.262,-0.057
8.264,-0.056
8.266,-0.055
8.268,-0.053
8.270,-0.051
8.272,-0.049
8.274,-0.046
8.276,-0.043
8.278,-0.041
8.280,-0.039
8.282,-0.038
8.284,-0.038
8.286,-0.040
8.288,-0.042
8.290,-0.045
8.292,-0.049
8.294,-0.052
8.296,-0.054
8.298,-0.056
8.300,-0.056
8.302,-0.055
8.304,-0.054
8.306,-0.052
8.308,-0.050
8.310,-0.049
8.312,-0.048
8.314,-0.047
8.316,-0.047
8.318,-0.046
8.320,-0.046
8.322,-0.046
8.324,-0.046
8.326,-0.047
8.328,-0.047
8.330,-0.048
8.332,-0.050
8.334,-0.052
8.336,-0.053
8.338,-0.055
8.340,-0.056
8.342,-0.056
8.344,-0.056
8.346,-0.054
8.348,-0.052
8.350,-0.049
8.352,-0.045
8.354,-0.041
8.356,-0.036
8.358,-0.030
8.360,-0.024
8.362,-0.017
8.364,-0.011
8.366,-0.006
8.368,-0.002
8.370,0.001
8.372,0.001
8.374,0.000
8.376,-0.002
8.378,-0.003
8.380,-0.005
8.382,-0.005
8.384,-0.003
8.386,-0.001
8.388,0.001
8.390,0.003
8.392,0.004
8.394,0.005
8.396,0.005
8.398,0.006
8.400,0.008
8.402,0.009
8.404,0.011
8.406,0.013
8.408,0.014
8.410,0.014
8.412,0.013
8.414,0.010
8.416,0.004
8.418,-0.004
8.420,-0.015
8.422,-0.027
8.424,-0.039
8.426,-0.050
8.428,-0.058
8.430,-0.063
8.432,-0.065
8.434,-0.064
8.436,-0.063
8.438,-0.062
8.440,-0.062
8.442,-0.063
8.444,-0.065
8.446,-0.065
8.448,-0.064
8.450,-0.062
8.452,-0.058
8.454,-0.055
8.456,-0.053
8.458,-0.054
8.460,-0.058
8.462,-0.063
8.464,-0.068
8.466,-0.071
8.468,-0.073
8.470,-0.074
8.472,-0.075
8.474,-0.077
8.476,-0.082
8.478,-0.089
8.480,-0.095
8.482,-0.096
8.484,-0.085
8.486,-0.060
8.488,-0.015
8.490,0.049
8.492,0.129
8.494,0.222
8.496,0.320
8.498,0.412
8.500,0.489
8.502,0.540
8.504,0.557
8.506,0.536
8.508,0.478
8.510,0.388
8.512,0.280
8.514,0.167
8.516,0.065
8.518,-0.016
8.520,-0.069
8.522,-0.095
8.524,-0.098
8.526,-0.087
8.528,-0.069
8.530,-0.051
8.532,-0.038
8.534,-0.030
8.536,-0.027
8.538,-0.028
8.540,-0.030
8.542,-0.032
8.544,-0.032
8.546,-0.031
8.548,-0.027
8.550,-0.022
8.552,-0.017
8.554,-0.014
8.556,-0.014
8.558,-0.017
8.560,-0.023
8.562,-0.030
8.564,-0.035
8.566,-0.038
8.568,-0.037
8.570,-0.033
8.572,-0.027
8.574,-0.020
8.576,-0.015
8.578,-0.013
8.580,-0.014
8.582,-0.017
8.584,-0.021
8.586,-0.023
8.588,-0.022
8.590,-0.019
8.592,-0.014
8.594,-0.009
8.596,-0.006
8.598,-0.004
8.600,-0.006
8.602,-0.009
8.604,-0.013
8.606,-0.016
8.608,-0.017
8.610,-0.014
8.612,-0.009
8.614,-0.003
8.616,0.004
8.618,0.011
8.620,0.016
8.622,0.021
8.624,0.024
8.626,0.026
8.628,0.027
8.630,0.028
8.632,0.030
8.634,0.031
8.636,0.032
8.638,0.034
8.640,0.036
8.642,0.038
8.644,0.040
8.646,0.041
8.648,0.042
8.650,0.043
8.652,0.044
8.654,0.045
8.656,0.047
8.658,0.050
8.660,0.053
8.662,0.056
8.664,0.059
8.666,0.062
8.668,0.063
8.670,0.065
8.672,0.067
8.674,0.070
8.676,0.074
8.678,0.080
8.680,0.087
8.682,0.095
8.684,0.102
8.686,0.107
8.688,0.112
8.690,0.114
8.692,0.116
8.694,0.117
8.696,0.118
8.698,0.119
8.700,0.122
8.702,0.126
8.704,0.131
8.706,0.138
8.708,0.146
8.710,0.155
8.712,0.163
8.714,0.170
8.716,0.176
8.718,0.181
8.720,0.184
8.722,0.187
8.724,0.190
8.726,0.193
8.728,0.199
8.730,0.206
8.732,0.215
8.734,0.226
8.736,0.237
8.738,0.248
8.740,0.257
8.742,0.263
8.744,0.267
8.746,0.268
8.748,0.267
8.750,0.265
8.752,0.261
8.754,0.258
8.756,0.256
8.758,0.256
8.760,0.257
8.762,0.260
8.764,0.263
8.766,0.267
8.768,0.269
8.770,0.270
8.772,0.268
8.774,0.264
8.776,0.257
8.778,0.248
8.780,0.239
8.782,0.228
8.784,0.218
8.786,0.209
8.788,0.199
8.790,0.189
8.792,0.179
8.794,0.167
8.796,0.154
8.798,0.140
8.800,0.125
8.802,0.110
8.804,0.094
8.806,0.078
8.808,0.062
8.810,0.047
8.812,0.033
8.814,0.021
8.816,0.010
8.818,0.001
8.820,-0.007
8.822,-0.014
8.824,-0.021
8.826,-0.028
8.828,-0.034
8.830,-0.039
8.832,-0.044
8.834,-0.048
8.836,-0.052
8.838,-0.055
8.840,-0.058
8.842,-0.062
8.844,-0.065
8.846,-0.069
8.848,-0.074
8.850,-0.079
8.852,-0.084
8.854,-0.089
8.856,-0.093
8.858,-0.097
8.860,-0.098
8.862,-0.099
8.864,-0.097
8.866,-0.094
8.868,-0.091
8.870,-0.087
8.872,-0.084
8.874,-0.082
8.876,-0.082
8.878,-0.083
8.880,-0.084
8.882,-0.087
8.884,-0.089
8.886,-0.091
8.888,-0.092
8.890,-0.092
8.892,-0.091
8.894,-0.088
8.896,-0.085
8.898,-0.082
8.900,-0.080
8.902,-0.078
8.904,-0.076
8.906,-0.075
8.908,-0.075
8.910,-0.073
8.912,-0.072
8.914,-0.070
8.916,-0.069
8.918,-0.068
8.920,-0.068
8.922,-0.069
8.924,-0.070
8.926,-0.072
8.928,-0.074
8.930,-0.074
8.932,-0.074
8.934,-0.073
8.936,-0.070
8.938,-0.067
8.940,-0.064
8.942,-0.060
8.944,-0.058
8.946,-0.056
8.948,-0.055
8.950,-0.056
8.952,-0.059
8.954,-0.062
8.956,-0.065
8.958,-0.068
8.960,-0.068
8.962,-0.067
8.964,-0.065
8.966,-0.061
8.968,-0.057
8.970,-0.053
8.972,-0.050
8.974,-0.049
8.976,-0.048
8.978,-0.048
8.980,-0.048
8.982,-0.048
8.984,-0.048
8.986,-0.048
8.988,-0.048
8.990,-0.049
8.992,-0.050
8.994,-0.052
8.996,-0.055
8.998,-0.057
9.000,-0.060
9.002,-0.063
9.004,-0.066
9.006,-0.068
9.008,-0.070
9.010,-0.071
9.012,-0.071
9.014,-0.070
9.016,-0.069
9.018,-0.066
9.020,-0.064
9.022,-0.062
9.024,-0.060
9.026,-0.059
9.028,-0.058
9.030,-0.057
9.032,-0.056
9.034,-0.056
9.036,-0.056
9.038,-0.057
9.040,-0.058
9.042,-0.060
9.044,-0.063
9.046,-0.067
9.048,-0.070
9.050,-0.072
9.052,-0.073
9.054,-0.073
9.056,-0.072
9.058,-0.070
9.060,-0.067
9.062,-0.063
9.064,-0.061
9.066,-0.059
9.068,-0.059
9.070,-0.059
9.072,-0.062
9.074,-0.065
9.076,-0.068
9.078,-0.071
9.080,-0.074
9.082,-0.075
9.084,-0.076
9.086,-0.075
9.088,-0.073
9.090,-0.070
9.092,-0.068
9.094,-0.065
9.096,-0.063
9.098,-0.062
9.100,-0.063
9.102,-0.065
9.104,-0.068
9.106,-0.072
9.108,-0.075
9.110,-0.078
9.112,-0.079
9.114,-0.078
9.116,-0.076
9.118,-0.073
9.120,-0.071
9.122,-0.068
9.124,-0.066
9.126,-0.065
9.128,-0.064
9.130,-0.064
9.132,-0.064
9.134,-0.064
9.136,-0.064
9.138,-0.064
9.140,-0.063
9.142,-0.061
9.144,-0.058
9.146,-0.054
9.148,-0.049
9.150,-0.043
9.152,-0.038
9.154,-0.034
9.156,-0.032
9.158,-0.032
9.160,-0.034
9.162,-0.037
9.164,-0.041
9.166,-0.044
9.168,-0.045
9.170,-0.045
9.172,-0.043
9.174,-0.039
9.176,-0.034
9.178,-0.029
9.180,-0.023
9.182,-0.017
9.184,-0.013
9.186,-0.009
9.188,-0.006
9.190,-0.004
9.192,-0.003
9.194,-0.003
9.196,-0.003
9.198,-0.003
9.200,-0.004
9.202,-0.006
9.204,-0.010
9.206,-0.015
9.208,-0.024
9.210,-0.035
9.212,-0.048
9.214,-0.061
9.216,-0.073
9.218,-0.083
9.220,-0.089
9.222,-0.090
9.224,-0.087
9.226,-0.083
9.228,-0.078
9.230,-0.074
9.232,-0.072
9.234,-0.072
9.236,-0.073
9.238,-0.076
9.240,-0.078
9.242,-0.080
9.244,-0.082
9.246,-0.083
9.248,-0.083
9.250,-0.084
9.252,-0.085
9.254,-0.086
9.256,-0.087
9.258,-0.088
9.260,-0.090
9.262,-0.092
9.264,-0.098
9.266,-0.106
9.268,-0.117
9.270,-0.128
9.272,-0.136
9.274,-0.138
9.276,-0.127
9.278,-0.100
9.280,-0.053
9.282,0.012
9.284,0.094
9.286,0.187
9.288,0.282
9.290,0.368
9.292,0.437
9.294,0.479
9.296,0.486
9.298,0.456
9.300,0.392
9.302,0.301
9.304,0.193
9.306,0.083
9.308,-0.016
9.310,-0.093
9.312,-0.143
9.314,-0.164
9.316,-0.162
9.318,-0.145
9.320,-0.120
9.322,-0.097
9.324,-0.079
9.326,-0.069
9.328,-0.067
9.330,-0.071
9.332,-0.076
9.334,-0.081
9.336,-0.081
9.338,-0.077
9.340,-0.068
9.342,-0.055
9.344,-0.041
9.346,-0.029
9.348,-0.020
9.350,-0.016
9.352,-0.017
9.354,-0.022
9.356,-0.029
9.358,-0.037
9.360,-0.042
9.362,-0.045
9.364,-0.045
9.366,-0.042
9.368,-0.038
9.370,-0.033
9.372,-0.029
9.374,-0.026
9.376,-0.024
9.378,-0.023
9.380,-0.021
9.382,-0.019
9.384,-0.017
9.386,-0.015
9.388,-0.013
9.390,-0.013
9.392,-0.014
9.394,-0.016
9.396,-0.019
9.398,-0.022
9.400,-0.023
9.402,-0.021
9.404,-0.017
9.406,-0.010
9.408,-0.002
9.410,0.006
9.412,0.013
9.414,0.018
9.416,0.021
9.418,0.022
9.420,0.022
9.422,0.020
9.424,0.018
9.426,0.016
9.428,0.013
9.430,0.012
9.432,0.011
9.434,0.013
9.436,0.017
9.438,0.024
9.440,0.031
9.442,0.040
9.444,0.048
9.446,0.054
9.448,0.059
9.450,0.061
9.452,0.062
9.454,0.062
9.456,0.062
9.458,0.063
9.460,0.066
9.462,0.070
9.464,0.075
9.466,0.081
9.468,0.087
9.470,0.093
9.472,0.098
9.474,0.101
9.476,0.103
9.478,0.104
9.480,0.105
9.482,0.105
9.484,0.106
9.486,0.108
9.488,0.112
9.490,0.118
9.492,0.126
9.494,0.135
9.496,0.144
9.498,0.152
9.500,0.159
9.502,0.166
9.504,0.172
9.506,0.179
9.508,0.187
9.510,0.196
9.512,0.205
9.514,0.215
9.516,0.224
9.518,0.232
9.520,0.238
9.522,0.242
9.524,0.245
9.526,0.247
9.528,0.249
9.530,0.252
9.532,0.256
9.534,0.261
9.536,0.268
9.538,0.277
9.540,0.285
9.542,0.294
9.544,0.302
9.546,0.309
9.548,0.312
9.550,0.314
9.552,0.312
9.554,0.309
9.556,0.304
9.558,0.297
9.560,0.290
9.562,0.282
9.564,0.274
9.566,0.264
9.568,0.254
9.570,0.242
9.572,0.229
9.574,0.215
9.576,0.199
9.578,0.182
9.580,0.165
9.582,0.147
9.584,0.130
9.586,0.113
9.588,0.097
9.590,0.081
9.592,0.066
9.594,0.050
9.596,0.035
9.598,0.020
9.600,0.006
9.602,-0.008
9.604,-0.020
9.606,-0.030
9.608,-0.039
9.610,-0.047
9.612,-0.054
9.614,-0.059
9.616,-0.064
9.618,-0.068
9.620,-0.072
9.622,-0.074
9.624,-0.076
9.626,-0.078
9.628,-0.080
9.630,-0.083
9.632,-0.085
9.634,-0.088
9.636,-0.091
9.638,-0.093
9.640,-0.095
9.642,-0.097
9.644,-0.100
9.646,-0.102
9.648,-0.105
9.650,-0.107
9.652,-0.108
9.654,-0.108
9.656,-0.106
9.658,-0.104
9.660,-0.103
9.662,-0.101
9.664,-0.101
9.666,-0.101
9.668,-0.101
9.670,-0.101
9.672,-0.100
9.674,-0.099
9.676,-0.097
9.678,-0.095
9.680,-0.094
9.682,-0.094
9.684,-0.094
9.686,-0.096
9.688,-0.097
9.690,-0.098
9.692,-0.099
9.694,-0.099
9.696,-0.099
9.698,-0.099
9.700,-0.099
9.702,-0.098
9.704,-0.096
9.706,-0.094
9.708,-0.091
9.710,-0.088
9.712,-0.086
9.714,-0.084
9.716,-0.083
9.718,-0.083
9.720,-0.083
9.722,-0.084
9.724,-0.084
9.726,-0.083
9.728,-0.082
9.730,-0.081
9.732,-0.079
9.734,-0.077
9.736,-0.075
9.738,-0.073
9.740,-0.070
9.742,-0.067
9.744,-0.063
9.746,-0.060
9.748,-0.057
9.750,-0.056
9.752,-0.057
9.754,-0.059
9.756,-0.062
9.758,-0.065
9.760,-0.068
9.762,-0.071
9.764,-0.073
9.766,-0.074
9.768,-0.076
9.770,-0.077
9.772,-0.078
9.774,-0.079
9.776,-0.080
9.778,-0.080
9.780,-0.079
9.782,-0.079
9.784,-0.078
9.786,-0.077
9.788,-0.076
9.790,-0.075
9.792,-0.073
9.794,-0.071
9.796,-0.070
9.798,-0.068
9.800,-0.067
9.802,-0.067
9.804,-0.068
9.806,-0.068
9.808,-0.069
9.810,-0.070
9.812,-0.071
9.814,-0.073
9.816,-0.074
9.818,-0.075
9.820,-0.076
9.822,-0.078
9.824,-0.079
9.826,-0.080
9.828,-0.082
9.830,-0.083
9.832,-0.085
9.834,-0.086
9.836,-0.086
9.838,-0.085
9.840,-0.083
9.842,-0.081
9.844,-0.079
9.846,-0.078
9.848,-0.079
9.850,-0.081
9.852,-0.085
9.854,-0.088
9.856,-0.091
9.858,-0.093
9.860,-0.093
9.862,-0.091
9.864,-0.088
9.866,-0.083
9.868,-0.078
9.870,-0.071
9.872,-0.064
9.874,-0.056
9.876,-0.049
9.878,-0.042
9.880,-0.037
9.882,-0.034
9.884,-0.033
9.886,-0.034
9.888,-0.037
9.890,-0.040
9.892,-0.043
9.894,-0.045
9.896,-0.045
9.898,-0.044
9.900,-0.042
9.902,-0.039
9.904,-0.036
9.906,-0.032
9.908,-0.029
9.910,-0.025
9.912,-0.022
9.914,-0.020
9.916,-0.020
9.918,-0.021
9.920,-0.023
9.922,-0.024
9.924,-0.026
9.926,-0.027
9.928,-0.027
9.930,-0.027
9.932,-0.029
9.934,-0.033
9.936,-0.040
9.938,-0.049
9.940,-0.060
9.942,-0.071
9.944,-0.081
9.946,-0.088
9.948,-0.091
9.950,-0.092
9.952,-0.091
9.954,-0.088
9.956,-0.087
9.958,-0.087
9.960,-0.089
9.962,-0.092
9.964,-0.096
9.966,-0.100
9.968,-0.102
9.970,-0.101
9.972,-0.099
9.974,-0.097
9.976,-0.094
9.978,-0.093
9.980,-0.092
9.982,-0.092
9.984,-0.092
9.986,-0.091
9.988,-0.089
9.990,-0.088
9.992,-0.088
9.994,-0.093
9.996,-0.102
9.998,-0.115
10.000,-0.129
10.002,-0.140
10.004,-0.142
10.006,-0.129
10.008,-0.097
10.010,-0.043
10.012,0.032
10.014,0.125
10.016,0.228
10.018,0.332
10.020,0.426
10.022,0.498
10.024,0.537
10.026,0.537
10.028,0.496
10.030,0.419
10.032,0.317
10.034,0.204
10.036,0.096
10.038,0.005
10.040,-0.060
10.042,-0.097
10.044,-0.110
10.046,-0.105
10.048,-0.091
10.050,-0.075
10.052,-0.062
10.054,-0.053
10.056,-0.051
10.058,-0.052
10.060,-0.055
10.062,-0.059
10.064,-0.062
10.066,-0.062
10.068,-0.059
10.070,-0.054
10.072,-0.048
10.074,-0.041
10.076,-0.037
10.078,-0.036
10.080,-0.038
10.082,-0.043
10.084,-0.049
10.086,-0.055
10.088,-0.059
10.090,-0.060
10.092,-0.060
10.094,-0.060
10.096,-0.059
10.098,-0.059
10.100,-0.060
10.102,-0.061
10.104,-0.062
10.106,-0.060
10.108,-0.056
10.110,-0.049
10.112,-0.041
10.114,-0.033
10.116,-0.026
10.118,-0.023
10.120,-0.023
10.122,-0.025
10.124,-0.030
10.126,-0.033
10.128,-0.035
10.130,-0.033
10.132,-0.027
10.134,-0.020
10.136,-0.012
10.138,-0.006
10.140,-0.002
10.142,0.000
10.144,-0.000
10.146,-0.002
10.148,-0.004
10.150,-0.005
10.152,-0.005
10.154,-0.005
10.156,-0.004
10.158,-0.002
10.160,0.001
10.162,0.005
10.164,0.011
10.166,0.017
10.168,0.023
10.170,0.029
10.172,0.034
10.174,0.038
10.176,0.040
10.178,0.040
10.180,0.040
10.182,0.038
10.184,0.036
10.186,0.035
10.188,0.035
10.190,0.036
10.192,0.040
10.194,0.045
10.196,0.052
10.198,0.059
10.200,0.068
10.202,0.075
10.204,0.082
10.206,0.086
10.208,0.090
10.210,0.093
10.212,0.096
10.214,0.101
10.216,0.107
10.218,0.115
10.220,0.125
10.222,0.135
10.224,0.145
10.226,0.154
10.228,0.160
10.230,0.164
10.232,0.167
10.234,0.168
10.236,0.170
10.238,0.173
10.240,0.177
10.242,0.184
10.244,0.192
10.246,0.202
10.248,0.212
10.250,0.221
10.252,0.230
10.254,0.238
10.256,0.244
10.258,0.250
10.260,0.254
10.262,0.258
10.264,0.261
10.266,0.263
10.268,0.265
10.270,0.266
10.272,0.267
10.274,0.267
10.276,0.268
10.278,0.268
10.280,0.269
10.282,0.269
10.284,0.268
10.286,0.266
10.288,0.262
10.290,0.256
10.292,0.248
10.294,0.238
10.296,0.227
10.298,0.215
10.300,0.202
10.302,0.190
10.304,0.178
10.306,0.166
10.308,0.154
10.310,0.141
10.312,0.128
10.314,0.113
10.316,0.097
10.318,0.080
10.320,0.064
10.322,0.048
10.324,0.033
10.326,0.021
10.328,0.011
10.330,0.003
10.332,-0.004
10.334,-0.010
10.336,-0.016
10.338,-0.024
10.340,-0.032
10.342,-0.041
10.344,-0.050
10.346,-0.058
10.348,-0.065
10.350,-0.070
10.352,-0.074
10.354,-0.078
10.356,-0.080
10.358,-0.082
10.360,-0.084
10.362,-0.085
10.364,-0.086
10.366,-0.087
10.368,-0.088
10.370,-0.088
10.372,-0.089
10.374,-0.090
10.376,-0.091
10.378,-0.092
10.380,-0.095
10.382,-0.099
10.384,-0.104
10.386,-0.110
10.388,-0.114
10.390,-0.117
10.392,-0.118
10.394,-0.115
10.396,-0.110
10.398,-0.104
10.400,-0.096
10.402,-0.090
10.404,-0.085
10.406,-0.082
10.408,-0.082
10.410,-0.084
10.412,-0.088
10.414,-0.093
10.416,-0.097
10.418,-0.100
10.420,-0.102
10.422,-0.101
10.424,-0.098
10.426,-0.095
10.428,-0.091
10.430,-0.088
10.432,-0.085
10.434,-0.083
10.436,-0.082
10.438,-0.082
10.440,-0.081
10.442,-0.080
10.444,-0.078
10.446,-0.077
10.448,-0.075
10.450,-0.074
10.452,-0.073
10.454,-0.072
10.456,-0.070
10.458,-0.069
10.460,-0.067
10.462,-0.065
10.464,-0.063
10.466,-0.061
10.468,-0.061
10.470,-0.061
10.472,-0.061
10.474,-0.062
10.476,-0.063
10.478,-0.063
10.480,-0.064
10.482,-0.064
10.484,-0.065
10.486,-0.065
10.488,-0.064
10.490,-0.063
10.492,-0.062
10.494,-0.060
10.496,-0.059
10.498,-0.059
10.500,-0.059
10.502,-0.061
10.504,-0.063
10.506,-0.065
10.508,-0.066
10.510,-0.066
10.512,-0.065
10.514,-0.064
10.516,-0.063
10.518,-0.063
10.520,-0.064
10.522,-0.065
10.524,-0.066
10.526,-0.068
10.528,-0.068
10.530,-0.068
10.532,-0.067
10.534,-0.066
10.536,-0.066
10.538,-0.065
10.540,-0.064
10.542,-0.063
10.544,-0.061
10.546,-0.059
10.548,-0.056
10.550,-0.055
10.552,-0.054
10.554,-0.056
10.556,-0.059
10.558,-0.062
10.560,-0.066
10.562,-0.070
10.564,-0.073
10.566,-0.075
10.568,-0.076
10.570,-0.075
10.572,-0.074
10.574,-0.072
10.576,-0.069
10.578,-0.065
10.580,-0.061
10.582,-0.058
10.584,-0.057
10.586,-0.057
10.588,-0.058
10.590,-0.061
10.592,-0.065
10.594,-0.068
10.596,-0.071
10.598,-0.073
10.600,-0.073
10.602,-0.073
10.604,-0.073
10.606,-0.073
10.608,-0.074
10.610,-0.074
10.612,-0.074
10.614,-0.074
10.616,-0.073
10.618,-0.072
10.620,-0.070
10.622,-0.068
10.624,-0.068
10.626,-0.070
10.628,-0.073
10.630,-0.077
10.632,-0.081
10.634,-0.084
10.636,-0.086
10.638,-0.084
10.640,-0.079
10.642,-0.072
10.644,-0.063
10.646,-0.054
10.648,-0.046
10.650,-0.039
10.652,-0.034
10.654,-0.030
10.656,-0.027
10.658,-0.025
10.660,-0.023
10.662,-0.023
10.664,-0.022
10.666,-0.022
10.668,-0.022
10.670,-0.022
10.672,-0.022
10.674,-0.021
10.676,-0.019
10.678,-0.017
10.680,-0.015
10.682,-0.013
10.684,-0.011
10.686,-0.009
10.688,-0.006
10.690,-0.003
10.692,-0.000
10.694,0.002
10.696,0.003
10.698,0.003
10.700,0.000
10.702,-0.003
10.704,-0.006
10.706,-0.009
10.708,-0.011
10.710,-0.013
10.712,-0.015
10.714,-0.019
10.716,-0.026
10.718,-0.037
10.720,-0.050
10.722,-0.063
10.724,-0.075
10.726,-0.084
10.728,-0.089
10.730,-0.090
10.732,-0.088
10.734,-0.085
10.736,-0.082
10.738,-0.081
10.740,-0.082
10.742,-0.083
10.744,-0.084
10.746,-0.083
10.748,-0.082
10.750,-0.079
10.752,-0.077
10.754,-0.076
10.756,-0.077
10.758,-0.080
10.760,-0.084
10.762,-0.087
10.764,-0.088
10.766,-0.086
10.768,-0.083
10.770,-0.080
10.772,-0.082
10.774,-0.088
10.776,-0.099
10.778,-0.113
10.780,-0.125
10.782,-0.130
10.784,-0.121
10.786,-0.092
10.788,-0.039
10.790,0.037
10.792,0.134
10.794,0.246
10.796,0.363
10.798,0.473
10.800,0.564
10.802,0.623
10.804,0.640
10.806,0.611
10.808,0.539
10.810,0.432
10.812,0.306
10.814,0.179
10.816,0.067
10.818,-0.017
10.820,-0.069
10.822,-0.091
10.824,-0.090
10.826,-0.076
10.828,-0.057
10.830,-0.041
10.832,-0.030
10.834,-0.026
10.836,-0.027
10.838,-0.032
10.840,-0.037
10.842,-0.042
10.844,-0.044
10.846,-0.043
10.848,-0.039
10.850,-0.033
10.852,-0.026
10.854,-0.021
10.856,-0.020
10.858,-0.023
10.860,-0.030
10.862,-0.039
10.864,-0.047
10.866,-0.052
10.868,-0.052
10.870,-0.049
10.872,-0.042
10.874,-0.034
10.876,-0.028
10.878,-0.024
10.880,-0.024
10.882,-0.027
10.884,-0.031
10.886,-0.033
10.888,-0.033
10.890,-0.029
10.892,-0.023
10.894,-0.016
10.896,-0.009
10.898,-0.003
10.900,0.000
10.902,0.001
10.904,0.000
10.906,0.000
10.908,0.001
10.910,0.003
10.912,0.006
10.914,0.010
10.916,0.014
10.918,0.016
10.920,0.017
10.922,0.017
10.924,0.017
10.926,0.016
10.928,0.017
10.930,0.019
10.932,0.022
10.934,0.025
10.936,0.028
10.938,0.031
10.940,0.033
10.942,0.035
10.944,0.037
10.946,0.039
10.948,0.042
10.950,0.046
10.952,0.050
10.954,0.055
10.956,0.058
10.958,0.061
10.960,0.063
10.962,0.065
10.964,0.066
10.966,0.068
10.968,0.069
10.970,0.072
10.972,0.075
10.974,0.079
10.976,0.083
10.978,0.089
10.980,0.094
10.982,0.101
10.984,0.107
10.986,0.112
10.988,0.117
10.990,0.119
10.992,0.120
10.994,0.120
10.996,0.120
10.998,0.123
11.000,0.129
11.002,0.139
11.004,0.152
11.006,0.167
11.008,0.182
11.010,0.196
11.012,0.206
11.014,0.214
11.016,0.220
11.018,0.224
11.020,0.227
11.022,0.230
11.024,0.234
11.026,0.238
11.028,0.242
11.030,0.247
11.032,0.252
11.034,0.257
11.036,0.263
11.038,0.269
11.040,0.274
11.042,0.280
11.044,0.284
11.046,0.288
11.048,0.291
11.050,0.294
11.052,0.296
11.054,0.298
11.056,0.300
11.058,0.301
11.060,0.300
11.062,0.297
11.064,0.293
11.066,0.287
11.068,0.281
11.070,0.274
11.072,0.267
11.074,0.260
11.076,0.253
11.078,0.245
11.080,0.236
11.082,0.224
11.084,0.210
11.086,0.193
11.088,0.175
11.090,0.156
11.092,0.137
11.094,0.120
11.096,0.104
11.098,0.090
11.100,0.078
11.102,0.066
11.104,0.055
11.106,0.045
11.108,0.035
11.110,0.025
11.112,0.015
11.114,0.007
11.116,-0.002
11.118,-0.009
11.120,-0.017
11.122,-0.024
11.124,-0.030
11.126,-0.036
11.128,-0.041
11.130,-0.047
11.132,-0.052
11.134,-0.056
11.136,-0.061
11.138,-0.065
11.140,-0.069
11.142,-0.071
11.144,-0.074
11.146,-0.075
11.148,-0.076
11.150,-0.077
11.152,-0.078
11.154,-0.080
11.156,-0.081
11.158,-0.083
11.160,-0.084
11.162,-0.083
11.164,-0.082
11.166,-0.080
11.168,-0.078
11.170,-0.076
11.172,-0.075
11.174,-0.074
11.176,-0.075
11.178,-0.077
11.180,-0.080
11.182,-0.082
11.184,-0.084
11.186,-0.084
11.188,-0.084
11.190,-0.081
11.192,-0.078
11.194,-0.074
11.196,-0.071
11.198,-0.069
11.200,-0.068
11.202,-0.069
11.204,-0.071
11.206,-0.074
11.208,-0.078
11.210,-0.080
11.212,-0.082
11.214,-0.082
11.216,-0.081
11.218,-0.077
11.220,-0.072
11.222,-0.066
11.224,-0.060
11.226,-0.055
11.228,-0.052
11.230,-0.051
11.232,-0.053
11.234,-0.057
11.236,-0.063
11.238,-0.068
11.240,-0.073
11.242,-0.076
11.244,-0.077
11.246,-0.075
11.248,-0.071
11.250,-0.065
11.252,-0.058
11.254,-0.052
11.256,-0.046
11.258,-0.043
11.260,-0.042
11.262,-0.043
11.264,-0.045
11.266,-0.048
11.268,-0.052
11.270,-0.055
11.272,-0.057
11.274,-0.058
11.276,-0.058
11.278,-0.058
11.280,-0.058
11.282,-0.057
11.284,-0.056
11.286,-0.055
11.288,-0.055
11.290,-0.054
11.292,-0.054
11.294,-0.053
11.296,-0.053
11.298,-0.052
11.300,-0.051
11.302,-0.051
11.304,-0.050
11.306,-0.050
11.308,-0.051
11.310,-0.052
11.312,-0.053
11.314,-0.054
11.316,-0.055
11.318,-0.056
11.320,-0.057
11.322,-0.059
11.324,-0.061
11.326,-0.063
11.328,-0.065
11.330,-0.067
11.332,-0.067
11.334,-0.067
11.336,-0.065
11.338,-0.062
11.340,-0.059
11.342,-0.055
11.344,-0.051
11.346,-0.048
11.348,-0.045
11.350,-0.043
11.352,-0.043
11.354,-0.044
11.356,-0.047
11.358,-0.051
11.360,-0.056
11.362,-0.061
11.364,-0.066
11.366,-0.071
11.368,-0.075
11.370,-0.078
11.372,-0.079
11.374,-0.079
11.376,-0.077
11.378,-0.072
11.380,-0.066
11.382,-0.059
11.384,-0.053
11.386,-0.047
11.388,-0.044
11.390,-0.043
11.392,-0.044
11.394,-0.047
11.396,-0.051
11.398,-0.056
11.400,-0.059
11.402,-0.062
11.404,-0.064
11.406,-0.064
11.408,-0.064
11.410,-0.062
11.412,-0.060
11.414,-0.058
11.416,-0.056
11.418,-0.054
11.420,-0.053
11.422,-0.053
11.424,-0.054
11.426,-0.056
11.428,-0.059
11.430,-0.062
11.432,-0.064
11.434,-0.067
11.436,-0.069
11.438,-0.070
11.440,-0.070
11.442,-0.069
11.444,-0.067
11.446,-0.063
11.448,-0.060
11.450,-0.055
11.452,-0.051
11.454,-0.047
11.456,-0.044
11.458,-0.043
11.460,-0.042
11.462,-0.043
11.464,-0.046
11.466,-0.049
11.468,-0.053
11.470,-0.056
11.472,-0.059
11.474,-0.061
11.476,-0.063
11.478,-0.065
11.480,-0.066
11.482,-0.067
11.484,-0.067
11.486,-0.066
11.488,-0.064
11.490,-0.061
11.492,-0.058
11.494,-0.054
11.496,-0.050
11.498,-0.047
11.500,-0.045
11.502,-0.044
11.504,-0.044
11.506,-0.045
11.508,-0.047
11.510,-0.050
11.512,-0.053
11.514,-0.057
11.516,-0.061
11.518,-0.065
11.520,-0.067
11.522,-0.067
11.524,-0.065
11.526,-0.062
11.528,-0.058
11.530,-0.054
11.532,-0.051
11.534,-0.048
11.536,-0.046
11.538,-0.044
11.540,-0.044
11.542,-0.044
11.544,-0.044
11.546,-0.045
11.548,-0.046
11.550,-0.048
11.552,-0.049
11.554,-0.051
11.556,-0.053
11.558,-0.054
11.560,-0.055
11.562,-0.056
11.564,-0.056
11.566,-0.056
11.568,-0.055
11.570,-0.054
11.572,-0.053
11.574,-0.052
11.576,-0.051
11.578,-0.050
11.580,-0.050
11.582,-0.050
11.584,-0.050
11.586,-0.051
11.588,-0.052
11.590,-0.053
11.592,-0.055
11.594,-0.055
11.596,-0.055
11.598,-0.054
11.600,-0.053
11.602,-0.051
11.604,-0.050
11.606,-0.048
11.608,-0.047
11.610,-0.045
11.612,-0.044
11.614,-0.044
11.616,-0.043
11.618,-0.044
11.620,-0.045
11.622,-0.048
11.624,-0.051
11.626,-0.054
11.628,-0.055
11.630,-0.055
11.632,-0.053
11.634,-0.050
11.636,-0.046
11.638,-0.043
11.640,-0.042
11.642,-0.042
11.644,-0.043
11.646,-0.045
11.648,-0.048
11.650,-0.050
11.652,-0.051
11.654,-0.052
11.656,-0.052
11.658,-0.051
11.660,-0.050
11.662,-0.048
11.664,-0.046
11.666,-0.044
11.668,-0.042
11.670,-0.041
11.672,-0.042
11.674,-0.044
11.676,-0.047
11.678,-0.049
11.680,-0.050
11.682,-0.050
11.684,-0.047
11.686,-0.044
11.688,-0.042
11.690,-0.040
11.692,-0.039
11.694,-0.040
11.696,-0.042
11.698,-0.044
11.700,-0.046
11.702,-0.048
11.704,-0.049
11.706,-0.049
11.708,-0.049
11.710,-0.049
11.712,-0.049
11.714,-0.048
11.716,-0.046
11.718,-0.044
11.720,-0.043
11.722,-0.042
11.724,-0.042
11.726,-0.044
11.728,-0.046
11.730,-0.048
11.732,-0.049
11.734,-0.049
11.736,-0.047
11.738,-0.044
11.740,-0.041
11.742,-0.038
11.744,-0.035
11.746,-0.034
11.748,-0.032
11.750,-0.029
11.752,-0.025
11.754,-0.019
11.756,-0.013
11.758,-0.006
11.760,0.000
11.762,0.005
11.764,0.007
11.766,0.009
11.768,0.009
11.770,0.009
11.772,0.009
11.774,0.010
11.776,0.012
11.778,0.014
11.780,0.016
11.782,0.018
11.784,0.020
11.786,0.019
11.788,0.018
11.790,0.015
11.792,0.012
11.794,0.008
11.796,0.006
11.798,0.006
11.800,0.008
11.802,0.012
11.804,0.017
11.806,0.022
11.808,0.025
11.810,0.025
11.812,0.019
11.814,0.009
11.816,-0.006
11.818,-0.022
11.820,-0.038
11.822,-0.051
11.824,-0.059
11.826,-0.063
11.828,-0.062
11.830,-0.060
11.832,-0.057
11.834,-0.055
11.836,-0.056
11.838,-0.057
11.840,-0.059
11.842,-0.059
11.844,-0.058
11.846,-0.055
11.848,-0.050
11.850,-0.047
11.852,-0.044
11.854,-0.044
11.856,-0.046
11.858,-0.048
11.860,-0.051
11.862,-0.051
11.864,-0.051
11.866,-0.052
11.868,-0.054
11.870,-0.060
11.872,-0.070
11.874,-0.082
11.876,-0.094
11.878,-0.099
11.880,-0.091
11.882,-0.064
11.884,-0.015
11.886,0.058
11.888,0.153
11.890,0.264
11.892,0.380
11.894,0.490
11.896,0.581
11.898,0.641
11.900,0.660
11.902,0.634
11.904,0.565
11.906,0.462
11.908,0.342
11.910,0.220
11.912,0.113
11.914,0.032
11.916,-0.018
11.918,-0.039
11.920,-0.039
11.922,-0.027
11.924,-0.012
11.926,-0.001
11.928,0.003
11.930,0.000
11.932,-0.007
11.934,-0.016
11.936,-0.024
11.938,-0.030
11.940,-0.032
11.942,-0.030
11.944,-0.024
11.946,-0.017
11.948,-0.010
11.950,-0.006
11.952,-0.005
11.954,-0.009
11.956,-0.015
11.958,-0.021
11.960,-0.026
11.962,-0.027
11.964,-0.024
11.966,-0.017
11.968,-0.010
11.970,-0.004
11.972,-0.002
11.974,-0.005
11.976,-0.012
11.978,-0.021
11.980,-0.029
11.982,-0.034
11.984,-0.034
11.986,-0.029
11.988,-0.020
11.990,-0.009
11.992,0.000
11.994,0.007
11.996,0.010
11.998,0.010
12.000,0.008
12.002,0.006
12.004,0.005
12.006,0.004
12.008,0.005
12.010,0.007
12.012,0.008
12.014,0.009
12.016,0.010
12.018,0.011
12.020,0.013
12.022,0.016
12.024,0.021
12.026,0.027
12.028,0.033
12.030,0.039
12.032,0.043
12.034,0.046
12.036,0.047
12.038,0.046
12.040,0.044
12.042,0.042
12.044,0.038
12.046,0.036
12.048,0.034
12.050,0.034
12.052,0.037
12.054,0.042
12.056,0.050
12.058,0.059
12.060,0.069
12.062,0.077
12.064,0.083
12.066,0.087
12.068,0.089
12.070,0.090
12.072,0.090
12.074,0.089
12.076,0.089
12.078,0.089
12.080,0.090
12.082,0.092
12.084,0.094
12.086,0.098
12.088,0.102
12.090,0.107
12.092,0.112
12.094,0.118
12.096,0.124
12.098,0.130
12.100,0.135
12.102,0.140
12.104,0.145
12.106,0.149
12.108,0.154
12.110,0.158
12.112,0.163
12.114,0.169
12.116,0.176
12.118,0.183
12.120,0.190
12.122,0.197
12.124,0.204
12.126,0.210
12.128,0.215
12.130,0.219
12.132,0.223
12.134,0.226
12.136,0.228
12.138,0.230
12.140,0.231
12.142,0.232
12.144,0.233
12.146,0.235
12.148,0.237
12.150,0.241
12.152,0.246
12.154,0.251
12.156,0.256
12.158,0.260
12.160,0.262
12.162,0.262
12.164,0.259
12.166,0.255
12.168,0.250
12.170,0.244
12.172,0.238
12.174,0.231
12.176,0.226
12.178,0.220
12.180,0.214
12.182,0.208
12.184,0.201
12.186,0.195
12.188,0.187
12.190,0.179
12.192,0.169
12.194,0.158
12.196,0.146
12.198,0.133
12.200,0.119
12.202,0.106
12.204,0.093
12.206,0.080
12.208,0.068
12.210,0.057
12.212,0.047
12.214,0.037
12.216,0.028
12.218,0.019
12.220,0.011
12.222,0.003
12.224,-0.006
12.226,-0.014
12.228,-0.024
12.230,-0.034
12.232,-0.043
12.234,-0.052
12.236,-0.058
12.238,-0.062
12.240,-0.063
12.242,-0.062
12.244,-0.060
12.246,-0.057
12.248,-0.054
12.250,-0.053
12.252,-0.053
12.254,-0.054
12.256,-0.058
12.258,-0.062
12.260,-0.066
12.262,-0.070
12.264,-0.073
12.266,-0.074
12.268,-0.074
12.270,-0.073
12.272,-0.071
12.274,-0.068
12.276,-0.067
12.278,-0.065
12.280,-0.065
12.282,-0.064
12.284,-0.064
12.286,-0.063
12.288,-0.062
12.290,-0.061
12.292,-0.060
12.294,-0.059
12.296,-0.059
12.298,-0.059
12.300,-0.059
12.302,-0.060
12.304,-0.061
12.306,-0.061
12.308,-0.061
12.310,-0.060
12.312,-0.058
12.314,-0.056
12.316,-0.053
12.318,-0.052
12.320,-0.051
12.322,-0.052
12.324,-0.054
12.326,-0.057
12.328,-0.060
12.330,-0.062
12.332,-0.062
12.334,-0.060
12.336,-0.057
12.338,-0.053
12.340,-0.048
12.342,-0.043
12.344,-0.040
12.346,-0.038
12.348,-0.039
12.350,-0.040
12.352,-0.044
12.354,-0.048
12.356,-0.052
12.358,-0.055
12.360,-0.057
12.362,-0.058
12.364,-0.057
12.366,-0.054
12.368,-0.051
12.370,-0.048
12.372,-0.044
12.374,-0.042
12.376,-0.040
12.378,-0.039
12.380,-0.039
12.382,-0.039
12.384,-0.040
12.386,-0.042
12.388,-0.044
12.390,-0.046
12.392,-0.049
12.394,-0.052
12.396,-0.054
12.398,-0.056
12.400,-0.058
12.402,-0.058
12.404,-0.058
12.406,-0.057
12.408,-0.056
12.410,-0.055
12.412,-0.055
12.414,-0.054
12.416,-0.054
12.418,-0.053
12.420,-0.052
12.422,-0.051
12.424,-0.051
12.426,-0.051
12.428,-0.052
12.430,-0.054
12.432,-0.055
12.434,-0.056
12.436,-0.056
12.438,-0.056
12.440,-0.056
12.442,-0.057
12.444,-0.058
12.446,-0.059
12.448,-0.061
12.450,-0.063
12.452,-0.065
12.454,-0.066
12.456,-0.068
12.458,-0.069
12.460,-0.069
12.462,-0.069
12.464,-0.068
12.466,-0.066
12.468,-0.063
12.470,-0.061
12.472,-0.058
12.474,-0.057
12.476,-0.057
12.478,-0.058
12.480,-0.060
12.482,-0.063
12.484,-0.065
12.486,-0.067
12.488,-0.068
12.490,-0.067
12.492,-0.067
12.494,-0.066
12.496,-0.066
12.498,-0.066
12.500,-0.067
12.502,-0.068
12.504,-0.069
12.506,-0.070
12.508,-0.070
12.510,-0.071
12.512,-0.071
12.514,-0.071
12.516,-0.071
12.518,-0.071
12.520,-0.071
12.522,-0.071
12.524,-0.071
12.526,-0.070
12.528,-0.070
12.530,-0.069
12.532,-0.068
12.534,-0.068
12.536,-0.067
12.538,-0.066
12.540,-0.066
12.542,-0.066
12.544,-0.066
12.546,-0.068
12.548,-0.069
12.550,-0.072
12.552,-0.074
12.554,-0.075
12.556,-0.076
12.558,-0.075
12.560,-0.074
12.562,-0.072
12.564,-0.069
12.566,-0.067
12.568,-0.064
12.570,-0.062
12.572,-0.061
12.574,-0.061
12.576,-0.061
12.578,-0.061
12.580,-0.061
12.582,-0.061
12.584,-0.062
12.586,-0.063
12.588,-0.064
12.590,-0.066
12.592,-0.068
12.594,-0.069
12.596,-0.070
12.598,-0.070
12.600,-0.068
12.602,-0.066
12.604,-0.064
12.606,-0.063
12.608,-0.062
12.610,-0.061
12.612,-0.061
12.614,-0.062
12.616,-0.062
12.618,-0.063
12.620,-0.063
12.622,-0.064
12.624,-0.064
12.626,-0.065
12.628,-0.065
12.630,-0.065
12.632,-0.066
12.634,-0.066
12.636,-0.068
12.638,-0.070
12.640,-0.073
12.642,-0.076
12.644,-0.079
12.646,-0.081
12.648,-0.082
12.650,-0.081
12.652,-0.078
12.654,-0.075
12.656,-0.071
12.658,-0.068
12.660,-0.066
12.662,-0.064
12.664,-0.063
12.666,-0.061
12.668,-0.059
12.670,-0.056
12.672,-0.052
12.674,-0.048
12.676,-0.044
12.678,-0.041
12.680,-0.038
12.682,-0.036
12.684,-0.033
12.686,-0.029
12.688,-0.025
12.690,-0.021
12.692,-0.017
12.694,-0.014
12.696,-0.012
12.698,-0.011
12.700,-0.012
12.702,-0.013
12.704,-0.014
12.706,-0.015
12.708,-0.016
12.710,-0.016
12.712,-0.015
12.714,-0.014
12.716,-0.012
12.718,-0.010
12.720,-0.008
12.722,-0.006
12.724,-0.005
12.726,-0.004
12.728,-0.005
12.730,-0.006
12.732,-0.007
12.734,-0.008
12.736,-0.010
12.738,-0.010
12.740,-0.011
12.742,-0.012
12.744,-0.015
12.746,-0.020
12.748,-0.028
12.750,-0.037
12.752,-0.048
12.754,-0.058
12.756,-0.066
12.758,-0.073
12.760,-0.077
12.762,-0.080
12.764,-0.083
12.766,-0.086
12.768,-0.088
12.770,-0.091
12.772,-0.092
12.774,-0.090
12.776,-0.086
12.778,-0.080
12.780,-0.073
12.782,-0.066
12.784,-0.062
12.786,-0.061
12.788,-0.062
12.790,-0.066
12.792,-0.071
12.794,-0.076
12.796,-0.080
12.798,-0.084
12.800,-0.088
12.802,-0.093
12.804,-0.100
12.806,-0.107
12.808,-0.111
12.810,-0.108
12.812,-0.095
12.814,-0.067
12.816,-0.023
12.818,0.039
12.820,0.116
12.822,0.203
12.824,0.293
12.826,0.378
12.828,0.448
12.830,0.493
12.832,0.504
12.834,0.478
12.836,0.417
12.838,0.326
12.840,0.219
12.842,0.109
12.844,0.012
12.846,-0.063
12.848,-0.109
12.850,-0.128
12.852,-0.125
12.854,-0.108
12.856,-0.086
12.858,-0.066
12.860,-0.053
12.862,-0.048
12.864,-0.050
12.866,-0.057
12.868,-0.066
12.870,-0.074
12.872,-0.077
12.874,-0.074
12.876,-0.064
12.878,-0.050
12.880,-0.034
12.882,-0.019
12.884,-0.008
12.886,-0.003
12.888,-0.004
12.890,-0.010
12.892,-0.018
12.894,-0.026
12.896,-0.031
12.898,-0.034
12.900,-0.034
12.902,-0.032
12.904,-0.030
12.906,-0.029
12.908,-0.029
12.910,-0.029
12.912,-0.030
12.914,-0.031
12.916,-0.030
12.918,-0.028
12.920,-0.026
12.922,-0.023
12.924,-0.022
12.926,-0.021
12.928,-0.021
12.930,-0.022
12.932,-0.022
12.934,-0.021
12.936,-0.019
12.938,-0.014
12.940,-0.009
12.942,-0.003
12.944,0.002
12.946,0.006
12.948,0.007
12.950,0.006
12.952,0.004
12.954,0.002
12.956,0.000
12.958,0.000
12.960,0.002
12.962,0.006
12.964,0.010
12.966,0.013
12.968,0.016
12.970,0.017
12.972,0.018
12.974,0.019
12.976,0.021
12.978,0.024
12.980,0.030
12.982,0.037
12.984,0.044
12.986,0.052
12.988,0.059
12.990,0.065
12.992,0.069
12.994,0.070
12.996,0.070
12.998,0.069
13.000,0.066
13.002,0.063
13.004,0.061
13.006,0.061
13.008,0.064
13.010,0.070
13.012,0.077
13.014,0.086
13.016,0.095
13.018,0.102
13.020,0.108
13.022,0.113
13.024,0.117
13.026,0.120
13.028,0.124
13.030,0.128
13.032,0.132
13.034,0.137
13.036,0.142
13.038,0.148
13.040,0.154
13.042,0.161
13.044,0.169
13.046,0.178
13.048,0.187
13.050,0.196
13.052,0.204
13.054,0.210
13.056,0.215
13.058,0.218
13.060,0.219
13.062,0.219
13.064,0.220
13.066,0.221
13.068,0.223
13.070,0.227
13.072,0.232
13.074,0.239
13.076,0.246
13.078,0.253
13.080,0.261
13.082,0.268
13.084,0.274
13.086,0.277
13.088,0.277
13.090,0.275
13.092,0.270
13.094,0.264
13.096,0.257
13.098,0.251
13.100,0.245
13.102,0.240
13.104,0.236
13.106,0.232
13.108,0.227
13.110,0.220
13.112,0.211
13.114,0.200
13.116,0.187
13.118,0.172
13.120,0.155
13.122,0.137
13.124,0.119
13.126,0.102
13.128,0.087
13.130,0.074
13.132,0.064
13.134,0.057
13.136,0.051
13.138,0.045
13.140,0.039
13.142,0.030
13.144,0.020
13.146,0.008
13.148,-0.004
13.150,-0.017
13.152,-0.029
13.154,-0.040
13.156,-0.050
13.158,-0.059
13.160,-0.066
13.162,-0.071
13.164,-0.074
13.166,-0.075
13.168,-0.075
13.170,-0.073
13.172,-0.072
13.174,-0.071
13.176,-0.071
13.178,-0.072
13.180,-0.075
13.182,-0.079
13.184,-0.082
13.186,-0.086
13.188,-0.088
13.190,-0.090
13.192,-0.091
13.194,-0.091
13.196,-0.091
13.198,-0.090
13.200,-0.089
13.202,-0.088
13.204,-0.087
13.206,-0.086
13.208,-0.085
13.210,-0.084
13.212,-0.084
13.214,-0.084
13.216,-0.083
13.218,-0.082
13.220,-0.080
13.222,-0.077
13.224,-0.074
13.226,-0.072
13.228,-0.072
13.230,-0.072
13.232,-0.074
13.234,-0.076
13.236,-0.078
13.238,-0.079
13.240,-0.079
13.242,-0.078
13.244,-0.076
13.246,-0.072
13.248,-0.069
13.250,-0.066
13.252,-0.063
13.254,-0.061
13.256,-0.060
13.258,-0.060
13.260,-0.060
13.262,-0.060
13.264,-0.060
13.266,-0.061
13.268,-0.062
13.270,-0.063
13.272,-0.062
13.274,-0.062
13.276,-0.060
13.278,-0.059
13.280,-0.057
13.282,-0.055
13.284,-0.054
13.286,-0.053
13.288,-0.054
13.290,-0.055
13.292,-0.056
13.294,-0.057
13.296,-0.057
13.298,-0.057
13.300,-0.056
13.302,-0.055
13.304,-0.055
13.306,-0.055
13.308,-0.056
13.310,-0.057
13.312,-0.059
13.314,-0.061
13.316,-0.063
13.318,-0.064
13.320,-0.066
13.322,-0.067
13.324,-0.067
13.326,-0.067
13.328,-0.067
13.330,-0.066
13.332,-0.064
13.334,-0.063
13.336,-0.062
13.338,-0.062
13.340,-0.062
13.342,-0.064
13.344,-0.066
13.346,-0.068
13.348,-0.070
13.350,-0.071
13.352,-0.073
13.354,-0.074
13.356,-0.075
13.358,-0.075
13.360,-0.075
13.362,-0.073
13.364,-0.072
13.366,-0.069
13.368,-0.067
13.370,-0.066
13.372,-0.065
13.374,-0.066
13.376,-0.068
13.378,-0.071
13.380,-0.073
13.382,-0.075
13.384,-0.076
13.386,-0.076
13.388,-0.074
13.390,-0.072
13.392,-0.069
13.394,-0.066
13.396,-0.064
13.398,-0.063
13.400,-0.064
13.402,-0.065
13.404,-0.068
13.406,-0.071
13.408,-0.074
13.410,-0.076
13.412,-0.076
13.414,-0.076
13.416,-0.075
13.418,-0.074
13.420,-0.073
13.422,-0.074
13.424,-0.075
13.426,-0.077
13.428,-0.079
13.430,-0.080
13.432,-0.079
13.434,-0.078
13.436,-0.075
13.438,-0.071
13.440,-0.068
13.442,-0.065
13.444,-0.062
13.446,-0.058
13.448,-0.055
13.450,-0.051
13.452,-0.046
13.454,-0.041
13.456,-0.037
13.458,-0.034
13.460,-0.032
13.462,-0.031
13.464,-0.031
13.466,-0.031
13.468,-0.032
13.470,-0.032
13.472,-0.031
13.474,-0.030
13.476,-0.027
13.478,-0.024
13.480,-0.020
13.482,-0.015
13.484,-0.011
13.486,-0.008
13.488,-0.006
13.490,-0.006
13.492,-0.006
13.494,-0.007
13.496,-0.007
13.498,-0.007
13.500,-0.006
13.502,-0.006
13.504,-0.006
13.506,-0.009
13.508,-0.016
13.510,-0.025
13.512,-0.037
13.514,-0.051
13.516,-0.064
13.518,-0.076
13.520,-0.085
13.522,-0.090
13.524,-0.092
13.526,-0.091
13.528,-0.089
13.530,-0.085
13.532,-0.082
13.534,-0.080
13.536,-0.079
13.538,-0.078
13.540,-0.077
13.542,-0.076
13.544,-0.075
13.546,-0.074
13.548,-0.073
13.550,-0.074
13.552,-0.078
13.554,-0.085
13.556,-0.092
13.558,-0.098
13.560,-0.101
13.562,-0.101
13.564,-0.097
13.566,-0.092
13.568,-0.089
13.570,-0.088
13.572,-0.092
13.574,-0.099
13.576,-0.104
13.578,-0.103
13.580,-0.089
13.582,-0.057
13.584,-0.006
13.586,0.065
13.588,0.152
13.590,0.246
13.592,0.340
13.594,0.421
13.596,0.479
13.598,0.506
13.600,0.495
13.602,0.446
13.604,0.365
13.606,0.262
13.608,0.152
13.610,0.047
13.612,-0.039
13.614,-0.099
13.616,-0.131
13.618,-0.139
13.620,-0.130
13.622,-0.112
13.624,-0.092
13.626,-0.076
13.628,-0.066
13.630,-0.062
13.632,-0.063
13.634,-0.065
13.636,-0.067
13.638,-0.068
13.640,-0.065
13.642,-0.059
13.644,-0.050
13.646,-0.041
13.648,-0.033
13.650,-0.027
13.652,-0.025
13.654,-0.026
13.656,-0.031
13.658,-0.037
13.660,-0.043
13.662,-0.047
13.664,-0.050
13.666,-0.050
13.668,-0.048
13.670,-0.045
13.672,-0.042
13.674,-0.038
13.676,-0.034
13.678,-0.029
13.680,-0.024
13.682,-0.019
13.684,-0.013
13.686,-0.009
13.688,-0.007
13.690,-0.006
13.692,-0.008
13.694,-0.011
13.696,-0.015
13.698,-0.018
13.700,-0.019
13.702,-0.017
13.704,-0.013
13.706,-0.006
13.708,0.002
13.710,0.010
13.712,0.015
13.714,0.017
13.716,0.016
13.718,0.012
13.720,0.007
13.722,0.003
13.724,0.000
13.726,0.001
13.728,0.004
13.730,0.010
13.732,0.016
13.734,0.023
13.736,0.028
13.738,0.032
13.740,0.033
13.742,0.034
13.744,0.034
13.746,0.034
13.748,0.036
13.750,0.039
13.752,0.044
13.754,0.049
13.756,0.056
13.758,0.062
13.760,0.066
13.762,0.069
13.764,0.070
13.766,0.068
13.768,0.066
13.770,0.064
13.772,0.063
13.774,0.064
13.776,0.068
13.778,0.075
13.780,0.086
13.782,0.097
13.784,0.110
13.786,0.121
13.788,0.131
13.790,0.139
13.792,0.143
13.794,0.146
13.796,0.148
13.798,0.149
13.800,0.151
13.802,0.154
13.804,0.158
13.806,0.165
13.808,0.173
13.810,0.181
13.812,0.190
13.814,0.198
13.816,0.205
13.818,0.211
13.820,0.216
13.822,0.221
13.824,0.227
13.826,0.233
13.828,0.239
13.830,0.246
13.832,0.253
13.834,0.259
13.836,0.264
13.838,0.268
13.840,0.272
13.842,0.274
13.844,0.276
13.846,0.277
13.848,0.278
13.850,0.279
13.852,0.280
13.854,0.281
13.856,0.281
13.858,0.280
13.860,0.279
13.862,0.275
13.864,0.269
13.866,0.261
13.868,0.250
13.870,0.238
13.872,0.225
13.874,0.212
13.876,0.200
13.878,0.187
13.880,0.175
13.882,0.163
13.884,0.150
13.886,0.136
13.888,0.122
13.890,0.108
13.892,0.095
13.894,0.082
13.896,0.069
13.898,0.057
13.900,0.045
13.902,0.032
13.904,0.019
13.906,0.007
13.908,-0.005
13.910,-0.015
13.912,-0.023
13.914,-0.029
13.916,-0.034
13.918,-0.039
13.920,-0.044
13.922,-0.049
13.924,-0.055
13.926,-0.062
13.928,-0.069
13.930,-0.075
13.932,-0.081
13.934,-0.086
13.936,-0.090
13.938,-0.091
13.940,-0.091
13.942,-0.089
13.944,-0.087
13.946,-0.085
13.948,-0.084
13.950,-0.085
13.952,-0.087
13.954,-0.091
13.956,-0.096
13.958,-0.100
13.960,-0.104
13.962,-0.107
13.964,-0.108
13.966,-0.107
13.968,-0.106
13.970,-0.104
13.972,-0.102
13.974,-0.099
13.976,-0.097
13.978,-0.094
13.980,-0.092
13.982,-0.090
13.984,-0.088
13.986,-0.087
13.988,-0.085
13.990,-0.084
13.992,-0.084
13.994,-0.085
13.996,-0.086
13.998,-0.087
14.000,-0.089
14.002,-0.090
14.004,-0.090
14.006,-0.088
14.008,-0.085
14.010,-0.081
14.012,-0.077
14.014,-0.073
14.016,-0.069
14.018,-0.066
14.020,-0.064
14.022,-0.061
14.024,-0.060
14.026,-0.058
14.028,-0.057
14.030,-0.056
14.032,-0.056
14.034,-0.057
14.036,-0.058
14.038,-0.060
14.040,-0.063
14.042,-0.066
14.044,-0.069
14.046,-0.072
14.048,-0.073
14.050,-0.073
14.052,-0.072
14.054,-0.070
14.056,-0.067
14.058,-0.064
14.060,-0.061
14.062,-0.059
14.064,-0.057
14.066,-0.056
14.068,-0.056
14.070,-0.057
14.072,-0.059
14.074,-0.062
14.076,-0.065
14.078,-0.069
14.080,-0.071
14.082,-0.073
14.084,-0.072
14.086,-0.070
14.088,-0.067
14.090,-0.064
14.092,-0.062
14.094,-0.062
14.096,-0.063
14.098,-0.067
14.100,-0.072
14.102,-0.079
14.104,-0.086
14.106,-0.092
14.108,-0.098
14.110,-0.101
14.112,-0.101
14.114,-0.098
14.116,-0.091
14.118,-0.081
14.120,-0.071
14.122,-0.063
14.124,-0.057
14.126,-0.054
14.128,-0.055
14.130,-0.059
14.132,-0.065
14.134,-0.071
14.136,-0.077
14.138,-0.081
14.140,-0.084
14.142,-0.084
14.144,-0.084
14.146,-0.082
14.148,-0.080
14.150,-0.078
14.152,-0.076
14.154,-0.076
14.156,-0.076
14.158,-0.077
14.160,-0.080
14.162,-0.082
14.164,-0.084
14.166,-0.084
14.168,-0.084
14.170,-0.082
14.172,-0.079
14.174,-0.076
14.176,-0.073
14.178,-0.072
14.180,-0.073
14.182,-0.075
14.184,-0.078
14.186,-0.081
14.188,-0.084
14.190,-0.085
14.192,-0.085
14.194,-0.084
14.196,-0.081
14.198,-0.078
14.200,-0.075
14.202,-0.071
14.204,-0.068
14.206,-0.064
14.208,-0.061
14.210,-0.057
14.212,-0.054
14.214,-0.051
14.216,-0.048
14.218,-0.045
14.220,-0.042
14.222,-0.038
14.224,-0.035
14.226,-0.031
14.228,-0.028
14.230,-0.026
14.232,-0.025
14.234,-0.024
14.236,-0.025
14.238,-0.025
14.240,-0.025
14.242,-0.024
14.244,-0.023
14.246,-0.020
14.248,-0.018
14.250,-0.015
14.252,-0.013
14.254,-0.013
14.256,-0.014
14.258,-0.017
14.260,-0.021
14.262,-0.027
14.264,-0.035
14.266,-0.044
14.268,-0.055
14.270,-0.066
14.272,-0.076
14.274,-0.084
14.276,-0.089
14.278,-0.091
14.280,-0.090
14.282,-0.087
14.284,-0.085
14.286,-0.084
14.288,-0.085
14.290,-0.089
14.292,-0.093
14.294,-0.097
14.296,-0.099
14.298,-0.098
14.300,-0.094
14.302,-0.089
14.304,-0.084
14.306,-0.083
14.308,-0.084
14.310,-0.089
14.312,-0.095
14.314,-0.101
14.316,-0.105
14.318,-0.107
14.320,-0.108
14.322,-0.110
14.324,-0.113
14.326,-0.120
14.328,-0.130
14.330,-0.141
14.332,-0.148
14.334,-0.146
14.336,-0.129
14.338,-0.093
14.340,-0.035
14.342,0.045
14.344,0.143
14.346,0.251
14.348,0.360
14.350,0.458
14.352,0.532
14.354,0.571
14.356,0.568
14.358,0.523
14.360,0.441
14.362,0.334
14.364,0.217
14.366,0.107
14.368,0.018
14.370,-0.044
14.372,-0.076
14.374,-0.084
14.376,-0.076
14.378,-0.061
14.380,-0.046
14.382,-0.037
14.384,-0.034
14.386,-0.038
14.388,-0.046
14.390,-0.054
14.392,-0.061
14.394,-0.065
14.396,-0.065
14.398,-0.061
14.400,-0.055
14.402,-0.047
14.404,-0.040
14.406,-0.036
14.408,-0.037
14.410,-0.042
14.412,-0.049
14.414,-0.056
14.416,-0.061
14.418,-0.063
14.420,-0.059
14.422,-0.052
14.424,-0.044
14.426,-0.036
14.428,-0.032
14.430,-0.033
14.432,-0.038
14.434,-0.044
14.436,-0.050
14.438,-0.053
14.440,-0.052
14.442,-0.047
14.444,-0.040
14.446,-0.032
14.448,-0.026
14.450,-0.022
14.452,-0.020
14.454,-0.019
14.456,-0.017
14.458,-0.015
14.460,-0.011
14.462,-0.007
14.464,-0.002
14.466,0.001
14.468,0.003
14.470,0.003
14.472,0.003
14.474,0.002
14.476,0.001
14.478,0.001
14.480,0.002
14.482,0.004
14.484,0.006
14.486,0.008
14.488,0.011
14.490,0.014
14.492,0.018
14.494,0.021
14.496,0.023
14.498,0.025
14.500,0.026
14.502,0.027
14.504,0.027
14.506,0.029
14.508,0.031
14.510,0.035
14.512,0.041
14.514,0.047
14.516,0.053
14.518,0.058
14.520,0.062
14.522,0.065
14.524,0.067
14.526,0.069
14.528,0.072
14.530,0.075
14.532,0.079
14.534,0.084
14.536,0.089
14.538,0.094
14.540,0.098
14.542,0.103
14.544,0.107
14.546,0.111
14.548,0.116
14.550,0.121
14.552,0.127
14.554,0.132
14.556,0.136
14.558,0.141
14.560,0.146
14.562,0.152
14.564,0.160
14.566,0.169
14.568,0.180
14.570,0.191
14.572,0.201
14.574,0.210
14.576,0.218
14.578,0.223
14.580,0.227
14.582,0.231
14.584,0.234
14.586,0.237
14.588,0.241
14.590,0.245
14.592,0.251
14.594,0.257
14.596,0.263
14.598,0.269
14.600,0.275
14.602,0.280
14.604,0.282
14.606,0.282
14.608,0.280
14.610,0.275
14.612,0.269
14.614,0.263
14.616,0.257
14.618,0.253
14.620,0.250
14.622,0.248
14.624,0.246
14.626,0.242
14.628,0.236
14.630,0.225
14.632,0.212
14.634,0.196
14.636,0.178
14.638,0.161
14.640,0.145
14.642,0.130
14.644,0.116
14.646,0.104
14.648,0.093
14.650,0.082
14.652,0.071
14.654,0.059
14.656,0.046
14.658,0.032
14.660,0.017
14.662,0.002
14.664,-0.013
14.666,-0.025
14.668,-0.035
14.670,-0.043
14.672,-0.048
14.674,-0.051
14.676,-0.053
14.678,-0.056
14.680,-0.059
14.682,-0.063
14.684,-0.067
14.686,-0.072
14.688,-0.076
14.690,-0.078
14.692,-0.079
14.694,-0.080
14.696,-0.079
14.698,-0.079
14.700,-0.079
14.702,-0.081
14.704,-0.084
14.706,-0.087
14.708,-0.090
14.710,-0.093
14.712,-0.095
14.714,-0.095
14.716,-0.095
14.718,-0.094
14.720,-0.093
14.722,-0.092
14.724,-0.092
14.726,-0.091
14.728,-0.091
14.730,-0.090
14.732,-0.088
14.734,-0.086
14.736,-0.085
14.738,-0.084
14.740,-0.084
14.742,-0.085
14.744,-0.087
14.746,-0.089
14.748,-0.092
14.750,-0.094
14.752,-0.095
14.754,-0.094
14.756,-0.092
14.758,-0.088
14.760,-0.081
14.762,-0.074
14.764,-0.066
14.766,-0.060
14.768,-0.057
14.770,-0.056
14.772,-0.059
14.774,-0.064
14.776,-0.072
14.778,-0.079
14.780,-0.084
14.782,-0.086
14.784,-0.085
14.786,-0.080
14.788,-0.073
14.790,-0.064
14.792,-0.057
14.794,-0.051
14.796,-0.047
14.798,-0.046
14.800,-0.047
14.802,-0.050
14.804,-0.055
14.806,-0.059
14.808,-0.063
14.810,-0.067
14.812,-0.069
14.814,-0.069
14.816,-0.067
14.818,-0.064
14.820,-0.060
14.822,-0.056
14.824,-0.052
14.826,-0.050
14.828,-0.049
14.830,-0.050
14.832,-0.051
14.834,-0.054
14.836,-0.056
14.838,-0.059
14.840,-0.062
14.842,-0.065
14.844,-0.066
14.846,-0.067
14.848,-0.066
14.850,-0.064
14.852,-0.062
14.854,-0.059
14.856,-0.057
14.858,-0.055
14.860,-0.055
14.862,-0.055
14.864,-0.056
14.866,-0.058
14.868,-0.059
14.870,-0.060
14.872,-0.060
14.874,-0.062
14.876,-0.063
14.878,-0.066
14.880,-0.069
14.882,-0.072
14.884,-0.075
14.886,-0.078
14.888,-0.081
14.890,-0.082
14.892,-0.082
14.894,-0.079
14.896,-0.075
14.898,-0.070
14.900,-0.064
14.902,-0.058
14.904,-0.054
14.906,-0.053
14.908,-0.053
14.910,-0.056
14.912,-0.060
14.914,-0.065
14.916,-0.069
14.918,-0.071
14.920,-0.073
14.922,-0.073
14.924,-0.072
14.926,-0.071
14.928,-0.069
14.930,-0.068
14.932,-0.067
14.934,-0.066
14.936,-0.065
14.938,-0.065
14.940,-0.065
14.942,-0.065
14.944,-0.066
14.946,-0.067
14.948,-0.069
14.950,-0.072
14.952,-0.075
14.954,-0.077
14.956,-0.079
14.958,-0.079
14.960,-0.077
14.962,-0.075
14.964,-0.071
14.966,-0.066
14.968,-0.062
14.970,-0.058
14.972,-0.056
14.974,-0.055
14.976,-0.055
14.978,-0.057
14.980,-0.060
14.982,-0.064
14.984,-0.067
14.986,-0.071
14.988,-0.073
14.990,-0.074
14.992,-0.074
14.994,-0.074
14.996,-0.073
14.998,-0.073
15.000,-0.075
15.002,-0.077
15.004,-0.080
15.006,-0.082
15.008,-0.084
15.010,-0.083
15.012,-0.080
15.014,-0.075
15.016,-0.068
15.018,-0.060
15.020,-0.054
15.022,-0.049
15.024,-0.045
15.026,-0.042
15.028,-0.041
15.030,-0.040
15.032,-0.039
15.034,-0.039
15.036,-0.038
15.038,-0.038
15.040,-0.037
15.042,-0.036
15.044,-0.034
15.046,-0.032
15.048,-0.029
15.050,-0.026
15.052,-0.023
15.054,-0.020
15.056,-0.017
15.058,-0.014
15.060,-0.010
15.062,-0.006
15.064,-0.001
15.066,0.004
15.068,0.008
15.070,0.010
15.072,0.010
15.074,0.009
15.076,0.005
15.078,-0.000
15.080,-0.006
15.082,-0.013
15.084,-0.019
15.086,-0.027
15.088,-0.035
15.090,-0.045
15.092,-0.056
15.094,-0.068
15.096,-0.078
15.098,-0.087
15.100,-0.092
15.102,-0.094
15.104,-0.092
15.106,-0.087
15.108,-0.081
15.110,-0.075
15.112,-0.072
15.114,-0.071
15.116,-0.072
15.118,-0.075
15.120,-0.079
15.122,-0.081
15.124,-0.081
15.126,-0.079
15.128,-0.076
15.130,-0.073
15.132,-0.072
15.134,-0.073
15.136,-0.077
15.138,-0.083
15.140,-0.088
15.142,-0.091
15.144,-0.091
15.146,-0.089
15.148,-0.085
15.150,-0.083
15.152,-0.086
15.154,-0.092
15.156,-0.102
15.158,-0.111
15.160,-0.114
15.162,-0.103
15.164,-0.073
15.166,-0.019
15.168,0.059
15.170,0.158
15.172,0.271
15.174,0.388
15.176,0.494
15.178,0.577
15.180,0.622
15.182,0.623
15.184,0.576
15.186,0.487
15.188,0.368
15.190,0.237
15.192,0.112
15.194,0.010
15.196,-0.062
15.198,-0.099
15.200,-0.108
15.202,-0.097
15.204,-0.076
15.206,-0.056
15.208,-0.041
15.210,-0.034
15.212,-0.034
15.214,-0.040
15.216,-0.047
15.218,-0.053
15.220,-0.054
15.222,-0.051
15.224,-0.042
15.226,-0.030
15.228,-0.017
15.230,-0.007
15.232,-0.002
15.234,-0.003
15.236,-0.011
15.238,-0.024
15.240,-0.037
15.242,-0.049
15.244,-0.055
15.246,-0.055
15.248,-0.049
15.250,-0.039
15.252,-0.030
15.254,-0.023
15.256,-0.019
15.258,-0.019
15.260,-0.022
15.262,-0.024
15.264,-0.025
15.266,-0.023
15.268,-0.018
15.270,-0.012
15.272,-0.006
15.274,-0.002
15.276,-0.001
15.278,-0.002
15.280,-0.004
15.282,-0.007
15.284,-0.009
15.286,-0.009
15.288,-0.006
15.290,-0.002
15.292,0.003
15.294,0.009
15.296,0.014
15.298,0.018
15.300,0.020
15.302,0.022
15.304,0.023
15.306,0.025
15.308,0.028
15.310,0.030
15.312,0.033
15.314,0.036
15.316,0.038
15.318,0.039
15.320,0.039
15.322,0.039
15.324,0.039
15.326,0.041
15.328,0.043
15.330,0.047
15.332,0.052
15.334,0.058
15.336,0.064
15.338,0.070
15.340,0.075
15.342,0.079
15.344,0.082
15.346,0.083
15.348,0.083
15.350,0.082
15.352,0.082
15.354,0.082
15.356,0.085
15.358,0.090
15.360,0.097
15.362,0.105
15.364,0.113
15.366,0.121
15.368,0.128
15.370,0.134
15.372,0.138
15.374,0.143
15.376,0.147
15.378,0.152
15.380,0.158
15.382,0.163
15.384,0.167
15.386,0.172
15.388,0.175
15.390,0.178
15.392,0.182
15.394,0.187
15.396,0.192
15.398,0.200
15.400,0.208
15.402,0.218
15.404,0.228
15.406,0.238
15.408,0.248
15.410,0.256
15.412,0.263
15.414,0.268
15.416,0.272
15.418,0.276
15.420,0.279
15.422,0.282
15.424,0.285
15.426,0.287
15.428,0.289
15.430,0.290
15.432,0.291
15.434,0.291
15.436,0.290
15.438,0.288
15.440,0.286
15.442,0.283
15.444,0.279
15.446,0.275
15.448,0.271
15.450,0.266
15.452,0.262
15.454,0.256
15.456,0.250
15.458,0.242
15.460,0.232
15.462,0.220
15.464,0.206
15.466,0.190
15.468,0.174
15.470,0.158
15.472,0.142
15.474,0.127
15.476,0.112
15.478,0.098
15.480,0.084
15.482,0.071
15.484,0.059
15.486,0.047
15.488,0.035
15.490,0.024
15.492,0.013
15.494,0.003
15.496,-0.008
15.498,-0.017
15.500,-0.027
15.502,-0.035
15.504,-0.041
15.506,-0.046
15.508,-0.049
15.510,-0.051
15.512,-0.051
15.514,-0.052
15.516,-0.053
15.518,-0.056
15.520,-0.059
15.522,-0.064
15.524,-0.069
15.526,-0.074
15.528,-0.078
15.530,-0.081
15.532,-0.084
15.534,-0.085
15.536,-0.086
15.538,-0.086
15.540,-0.085
15.542,-0.083
15.544,-0.081
15.546,-0.078
15.548,-0.075
15.550,-0.073
15.552,-0.071
15.554,-0.069
15.556,-0.067
15.558,-0.066
15.560,-0.065
15.562,-0.064
15.564,-0.064
15.566,-0.066
15.568,-0.068
15.570,-0.070
15.572,-0.072
15.574,-0.073
15.576,-0.073
15.578,-0.072
15.580,-0.070
15.582,-0.067
15.584,-0.065
15.586,-0.064
15.588,-0.064
15.590,-0.064
15.592,-0.065
15.594,-0.066
15.596,-0.066
15.598,-0.066
15.600,-0.066
15.602,-0.065
15.604,-0.065
15.606,-0.064
15.608,-0.063
15.610,-0.062
15.612,-0.062
15.614,-0.061
15.616,-0.059
15.618,-0.058
15.620,-0.056
15.622,-0.054
15.624,-0.052
15.626,-0.050
15.628,-0.049
15.630,-0.048
15.632,-0.047
15.634,-0.047
15.636,-0.048
15.638,-0.049
15.640,-0.049
15.642,-0.050
15.644,-0.050
15.646,-0.050
15.648,-0.051
15.650,-0.051
15.652,-0.051
15.654,-0.052
15.656,-0.053
15.658,-0.054
15.660,-0.054
15.662,-0.054
15.664,-0.054
15.666,-0.053
15.668,-0.051
15.670,-0.050
15.672,-0.050
15.674,-0.050
15.676,-0.052
15.678,-0.054
15.680,-0.056
15.682,-0.058
15.684,-0.059
15.686,-0.059
15.688,-0.059
15.690,-0.058
15.692,-0.057
15.694,-0.056
15.696,-0.056
15.698,-0.056
15.700,-0.057
15.702,-0.057
15.704,-0.058
15.706,-0.059
15.708,-0.060
15.710,-0.060
15.712,-0.059
15.714,-0.058
15.716,-0.057
15.718,-0.056
15.720,-0.056
15.722,-0.056
15.724,-0.058
15.726,-0.060
15.728,-0.062
15.730,-0.064
15.732,-0.064
15.734,-0.064
15.736,-0.061
15.738,-0.058
15.740,-0.055
15.742,-0.053
15.744,-0.052
15.746,-0.052
15.748,-0.054
15.750,-0.058
15.752,-0.063
15.754,-0.067
15.756,-0.071
15.758,-0.074
15.760,-0.076
15.762,-0.077
15.764,-0.076
15.766,-0.074
15.768,-0.071
15.770,-0.067
15.772,-0.063
15.774,-0.060
15.776,-0.057
15.778,-0.056
15.780,-0.056
15.782,-0.058
15.784,-0.060
15.786,-0.062
15.788,-0.064
15.790,-0.066
15.792,-0.068
15.794,-0.070
15.796,-0.073
15.798,-0.076
15.800,-0.078
15.802,-0.080
15.804,-0.079
15.806,-0.077
15.808,-0.074
15.810,-0.069
15.812,-0.065
15.814,-0.062
15.816,-0.060
15.818,-0.059
15.820,-0.059
15.822,-0.061
15.824,-0.062
15.826,-0.064
15.828,-0.066
15.830,-0.068
15.832,-0.070
15.834,-0.072
15.836,-0.072
15.838,-0.072
15.840,-0.072
15.842,-0.070
15.844,-0.069
15.846,-0.067
15.848,-0.066
15.850,-0.064
15.852,-0.063
15.854,-0.062
15.856,-0.060
15.858,-0.059
15.860,-0.059
15.862,-0.060
15.864,-0.062
15.866,-0.065
15.868,-0.068
15.870,-0.071
15.872,-0.072
15.874,-0.071
15.876,-0.068
15.878,-0.065
15.880,-0.061
15.882,-0.058
15.884,-0.057
15.886,-0.058
15.888,-0.059
15.890,-0.062
15.892,-0.064
15.894,-0.066
15.896,-0.067
15.898,-0.068
15.900,-0.069
15.902,-0.070
15.904,-0.070
15.906,-0.071
15.908,-0.072
15.910,-0.073
15.912,-0.074
15.914,-0.076
15.916,-0.077
15.918,-0.076
15.920,-0.075
15.922,-0.071
15.924,-0.065
15.926,-0.059
15.928,-0.054
15.930,-0.050
15.932,-0.048
15.934,-0.050
15.936,-0.053
15.938,-0.057
15.940,-0.062
15.942,-0.065
15.944,-0.067
15.946,-0.068
15.948,-0.067
15.950,-0.066
15.952,-0.064
15.954,-0.062
15.956,-0.059
15.958,-0.057
15.960,-0.055
15.962,-0.053
15.964,-0.053
15.966,-0.053
15.968,-0.054
15.970,-0.056
15.972,-0.057
15.974,-0.058
15.976,-0.059
15.978,-0.059
15.980,-0.059
15.982,-0.059
15.984,-0.059
15.986,-0.059
15.988,-0.059
15.990,-0.059
15.992,-0.059
15.994,-0.060
15.996,-0.061
15.998,-0.062
16.000,-0.062
16.002,-0.062
16.004,-0.061
16.006,-0.060
16.008,-0.059
16.010,-0.056
16.012,-0.053
16.014,-0.049
16.016,-0.043
16.018,-0.038
16.020,-0.031
16.022,-0.025
16.024,-0.020
16.026,-0.016
16.028,-0.013
16.030,-0.012
16.032,-0.013
16.034,-0.014
16.036,-0.016
16.038,-0.017
16.040,-0.016
16.042,-0.014
16.044,-0.009
16.046,-0.004
16.048,0.003
16.050,0.009
16.052,0.014
16.054,0.018
16.056,0.020
16.058,0.019
16.060,0.017
16.062,0.015
16.064,0.012
16.066,0.010
16.068,0.009
16.070,0.009
16.072,0.009
16.074,0.008
16.076,0.006
16.078,0.001
16.080,-0.008
16.082,-0.020
16.084,-0.034
16.086,-0.047
16.088,-0.058
16.090,-0.066
16.092,-0.070
16.094,-0.072
16.096,-0.072
16.098,-0.073
16.100,-0.074
16.102,-0.076
16.104,-0.077
16.106,-0.077
16.108,-0.073
16.110,-0.067
16.112,-0.060
16.114,-0.052
16.116,-0.048
16.118,-0.047
16.120,-0.051
16.122,-0.058
16.124,-0.067
16.126,-0.074
16.128,-0.079
16.130,-0.081
16.132,-0.082
16.134,-0.083
16.136,-0.087
16.138,-0.094
16.140,-0.101
16.142,-0.106
16.144,-0.103
16.146,-0.087
16.148,-0.053
16.150,0.001
16.152,0.078
16.154,0.173
16.156,0.282
16.158,0.396
16.160,0.501
16.162,0.585
16.164,0.636
16.166,0.645
16.168,0.606
16.170,0.525
16.172,0.412
16.174,0.283
16.176,0.157
16.178,0.049
16.180,-0.028
16.182,-0.073
16.184,-0.087
16.186,-0.081
16.188,-0.063
16.190,-0.043
16.192,-0.028
16.194,-0.020
16.196,-0.020
16.198,-0.026
16.200,-0.034
16.202,-0.042
16.204,-0.047
16.206,-0.047
16.208,-0.043
16.210,-0.034
16.212,-0.024
16.214,-0.015
16.216,-0.008
16.218,-0.007
16.220,-0.010
16.222,-0.018
16.224,-0.026
16.226,-0.033
16.228,-0.037
16.230,-0.035
16.232,-0.030
16.234,-0.023
16.236,-0.016
16.238,-0.012
16.240,-0.012
16.242,-0.016
16.244,-0.021
16.246,-0.026
16.248,-0.028
16.250,-0.027
16.252,-0.023
16.254,-0.017
16.256,-0.011
16.258,-0.006
16.260,-0.004
16.262,-0.004
16.264,-0.006
16.266,-0.008
16.268,-0.009
16.270,-0.007
16.272,-0.005
16.274,-0.001
16.276,0.004
16.278,0.007
16.280,0.010
16.282,0.010
16.284,0.010
16.286,0.011
16.288,0.012
16.290,0.015
16.292,0.020
16.294,0.027
16.296,0.035
16.298,0.042
16.300,0.048
16.302,0.051
16.304,0.051
16.306,0.050
16.308,0.047
16.310,0.044
16.312,0.043
16.314,0.043
16.316,0.046
16.318,0.051
16.320,0.056
16.322,0.062
16.324,0.067
16.326,0.072
16.328,0.076
16.330,0.078
16.332,0.081
16.334,0.083
16.336,0.085
16.338,0.087
16.340,0.089
16.342,0.092
16.344,0.094
16.346,0.097
16.348,0.099
16.350,0.102
16.352,0.106
16.354,0.109
16.356,0.114
16.358,0.119
16.360,0.125
16.362,0.132
16.364,0.139
16.366,0.146
16.368,0.152
16.370,0.156
16.372,0.159
16.374,0.160
16.376,0.160
16.378,0.162
16.380,0.165
16.382,0.172
16.384,0.182
16.386,0.194
16.388,0.207
16.390,0.219
16.392,0.228
16.394,0.233
16.396,0.235
16.398,0.235
16.400,0.234
16.402,0.232
16.404,0.232
16.406,0.233
16.408,0.236
16.410,0.240
16.412,0.245
16.414,0.251
16.416,0.258
16.418,0.264
16.420,0.270
16.422,0.274
16.424,0.275
16.426,0.273
16.428,0.268
16.430,0.262
16.432,0.254
16.434,0.247
16.436,0.240
16.438,0.235
16.440,0.230
16.442,0.225
16.444,0.220
16.446,0.213
16.448,0.204
16.450,0.194
16.452,0.181
16.454,0.167
16.456,0.152
16.458,0.137
16.460,0.122
16.462,0.108
16.464,0.095
16.466,0.083
16.468,0.072
16.470,0.063
16.472,0.054
16.474,0.046
16.476,0.038
16.478,0.029
16.480,0.019
16.482,0.008
16.484,-0.003
16.486,-0.015
16.488,-0.026
16.490,-0.036
16.492,-0.044
16.494,-0.050
16.496,-0.055
16.498,-0.058
16.500,-0.060
16.502,-0.062
16.504,-0.063
16.506,-0.064
16.508,-0.065
16.510,-0.066
16.512,-0.066
16.514,-0.065
16.516,-0.065
16.518,-0.066
16.520,-0.067
16.522,-0.069
16.524,-0.071
16.526,-0.074
16.528,-0.076
16.530,-0.077
16.532,-0.077
16.534,-0.076
16.536,-0.076
16.538,-0.075
16.540,-0.075
16.542,-0.075
16.544,-0.075
16.546,-0.076
16.548,-0.076
16.550,-0.076
16.552,-0.075
16.554,-0.074
16.556,-0.072
16.558,-0.070
16.560,-0.067
16.562,-0.064
16.564,-0.062
16.566,-0.059
16.568,-0.058
16.570,-0.057
16.572,-0.056
16.574,-0.057
16.576,-0.058
16.578,-0.059
16.580,-0.059
16.582,-0.060
16.584,-0.060
16.586,-0.059
16.588,-0.059
16.590,-0.059
16.592,-0.059
16.594,-0.059
16.596,-0.058
16.598,-0.058
16.600,-0.057
16.602,-0.056
16.604,-0.055
16.606,-0.052
16.608,-0.050
16.610,-0.048
16.612,-0.047
16.614,-0.046
16.616,-0.046
16.618,-0.047
16.620,-0.048
16.622,-0.050
16.624,-0.051
16.626,-0.051
16.628,-0.051
16.630,-0.050
16.632,-0.048
16.634,-0.047
16.636,-0.046
16.638,-0.045
16.640,-0.046
16.642,-0.047
16.644,-0.049
16.646,-0.051
16.648,-0.055
16.650,-0.059
16.652,-0.062
16.654,-0.065
16.656,-0.066
16.658,-0.066
16.660,-0.064
16.662,-0.061
16.664,-0.058
16.666,-0.055
16.668,-0.053
16.670,-0.052
16.672,-0.052
16.674,-0.054
16.676,-0.055
16.678,-0.057
16.680,-0.058
16.682,-0.059
16.684,-0.060
16.686,-0.060
16.688,-0.060
16.690,-0.060
16.692,-0.060
16.694,-0.061
16.696,-0.062
16.698,-0.065
16.700,-0.068
16.702,-0.071
16.704,-0.074
16.706,-0.076
16.708,-0.077
16.710,-0.076
16.712,-0.073
16.714,-0.070
16.716,-0.067
16.718,-0.064
16.720,-0.062
16.722,-0.061
16.724,-0.061
16.726,-0.062
16.728,-0.063
16.730,-0.065
16.732,-0.067
16.734,-0.070
16.736,-0.072
16.738,-0.074
16.740,-0.075
16.742,-0.077
16.744,-0.077
16.746,-0.076
16.748,-0.074
16.750,-0.072
16.752,-0.068
16.754,-0.065
16.756,-0.063
16.758,-0.061
16.760,-0.061
16.762,-0.062
16.764,-0.065
16.766,-0.069
16.768,-0.074
16.770,-0.078
16.772,-0.082
16.774,-0.084
16.776,-0.084
16.778,-0.082
16.780,-0.078
16.782,-0.074
16.784,-0.071
16.786,-0.068
16.788,-0.066
16.790,-0.066
16.792,-0.067
16.794,-0.069
16.796,-0.071
16.798,-0.074
16.800,-0.076
16.802,-0.078
16.804,-0.079
16.806,-0.080
16.808,-0.080
16.810,-0.080
16.812,-0.080
16.814,-0.080
16.816,-0.080
16.818,-0.079
16.820,-0.076
16.822,-0.073
16.824,-0.068
16.826,-0.063
16.828,-0.059
16.830,-0.056
16.832,-0.055
16.834,-0.056
16.836,-0.058
16.838,-0.060
16.840,-0.062
16.842,-0.064
16.844,-0.066
16.846,-0.067
16.848,-0.068
16.850,-0.070
16.852,-0.071
16.854,-0.072
16.856,-0.072
16.858,-0.071
16.860,-0.069
16.862,-0.066
16.864,-0.064
16.866,-0.062
16.868,-0.061
16.870,-0.059
16.872,-0.057
16.874,-0.053
16.876,-0.048
16.878,-0.042
16.880,-0.037
16.882,-0.033
16.884,-0.032
16.886,-0.032
16.888,-0.034
16.890,-0.037
16.892,-0.040
16.894,-0.042
16.896,-0.043
16.898,-0.043
16.900,-0.041
16.902,-0.038
16.904,-0.033
16.906,-0.026
16.908,-0.017
16.910,-0.008
16.912,0.002
16.914,0.009
16.916,0.014
16.918,0.016
16.920,0.014
16.922,0.009
16.924,0.002
16.926,-0.006
16.928,-0.014
16.930,-0.023
16.932,-0.033
16.934,-0.044
16.936,-0.055
16.938,-0.067
16.940,-0.078
16.942,-0.086
16.944,-0.091
16.946,-0.091
16.948,-0.087
16.950,-0.081
16.952,-0.074
16.954,-0.068
16.956,-0.066
16.958,-0.067
16.960,-0.071
16.962,-0.077
16.964,-0.083
16.966,-0.087
16.968,-0.088
16.970,-0.087
16.972,-0.083
16.974,-0.080
16.976,-0.077
16.978,-0.076
16.980,-0.076
16.982,-0.078
16.984,-0.081
16.986,-0.083
16.988,-0.085
16.990,-0.088
16.992,-0.091
16.994,-0.098
16.996,-0.106
16.998,-0.115
17.000,-0.121
17.002,-0.121
17.004,-0.109
17.006,-0.081
17.008,-0.035
17.010,0.030
17.012,0.113
17.014,0.207
17.016,0.304
17.018,0.395
17.020,0.469
17.022,0.513
17.024,0.521
17.026,0.487
17.028,0.415
17.030,0.313
17.032,0.195
17.034,0.077
17.036,-0.025
17.038,-0.102
17.040,-0.149
17.042,-0.165
17.044,-0.159
17.046,-0.138
17.048,-0.112
17.050,-0.088
17.052,-0.070
17.054,-0.060
17.056,-0.057
17.058,-0.059
17.060,-0.063
17.062,-0.066
17.064,-0.066
17.066,-0.063
17.068,-0.055
17.070,-0.046
17.072,-0.035
17.074,-0.027
17.076,-0.023
17.078,-0.024
17.080,-0.029
17.082,-0.036
17.084,-0.043
17.086,-0.048
17.088,-0.049
17.090,-0.046
17.092,-0.041
17.094,-0.035
17.096,-0.029
17.098,-0.026
17.100,-0.026
17.102,-0.027
17.104,-0.028
17.106,-0.029
17.108,-0.027
17.110,-0.024
17.112,-0.019
17.114,-0.014
17.116,-0.010
17.118,-0.009
17.120,-0.010
17.122,-0.013
17.124,-0.017
17.126,-0.020
17.128,-0.021
17.130,-0.020
17.132,-0.016
17.134,-0.011
17.136,-0.005
17.138,0.001
17.140,0.005
17.142,0.008
17.144,0.010
17.146,0.011
17.148,0.011
17.150,0.013
17.152,0.016
17.154,0.020
17.156,0.025
17.158,0.030
17.160,0.035
17.162,0.039
17.164,0.041
17.166,0.042
17.168,0.042
17.170,0.042
17.172,0.041
17.174,0.040
17.176,0.039
17.178,0.039
17.180,0.041
17.182,0.044
17.184,0.050
17.186,0.057
17.188,0.065
17.190,0.073
17.192,0.080
17.194,0.087
17.196,0.092
17.198,0.095
17.200,0.098
17.202,0.099
17.204,0.100
17.206,0.101
17.208,0.102
17.210,0.103
17.212,0.104
17.214,0.107
17.216,0.111
17.218,0.118
17.220,0.127
17.222,0.137
17.224,0.148
17.226,0.158
17.228,0.167
17.230,0.173
17.232,0.177
17.234,0.179
17.236,0.181
17.238,0.183
17.240,0.186
17.242,0.191
17.244,0.197
17.246,0.202
17.248,0.208
17.250,0.213
17.252,0.218
17.254,0.223
17.256,0.229
17.258,0.235
17.260,0.242
17.262,0.248
17.264,0.255
17.266,0.260
17.268,0.265
17.270,0.269
17.272,0.272
17.274,0.275
17.276,0.277
17.278,0.278
17.280,0.277
17.282,0.275
17.284,0.272
17.286,0.268
17.288,0.264
17.290,0.260
17.292,0.257
17.294,0.253
17.296,0.248
17.298,0.240
17.300,0.229
17.302,0.216
17.304,0.201
17.306,0.184
17.308,0.168
17.310,0.152
17.312,0.136
17.314,0.121
17.316,0.106
17.318,0.091
17.320,0.076
17.322,0.063
17.324,0.051
17.326,0.040
17.328,0.031
17.330,0.023
17.332,0.014
17.334,0.006
17.336,-0.004
17.338,-0.015
17.340,-0.026
17.342,-0.036
17.344,-0.047
17.346,-0.056
17.348,-0.064
17.350,-0.071
17.352,-0.077
17.354,-0.081
17.356,-0.082
17.358,-0.082
17.360,-0.081
17.362,-0.078
17.364,-0.076
17.366,-0.074
17.368,-0.074
17.370,-0.074
17.372,-0.077
17.374,-0.080
17.376,-0.084
17.378,-0.088
17.380,-0.092
17.382,-0.095
17.384,-0.097
17.386,-0.098
17.388,-0.100
17.390,-0.100
17.392,-0.100
17.394,-0.100
17.396,-0.099
17.398,-0.098
17.400,-0.096
17.402,-0.093
17.404,-0.091
17.406,-0.088
17.408,-0.087
17.410,-0.085
17.412,-0.084
17.414,-0.083
17.416,-0.083
17.418,-0.082
17.420,-0.083
17.422,-0.084
17.424,-0.085
17.426,-0.087
17.428,-0.089
17.430,-0.090
17.432,-0.090
17.434,-0.089
17.436,-0.086
17.438,-0.082
17.440,-0.077
17.442,-0.071
17.444,-0.066
17.446,-0.062
17.448,-0.060
17.450,-0.059
17.452,-0.060
17.454,-0.061
17.456,-0.062
17.458,-0.064
17.460,-0.064
17.462,-0.064
17.464,-0.062
17.466,-0.061
17.468,-0.058
17.470,-0.056
17.472,-0.055
17.474,-0.054
17.476,-0.055
17.478,-0.056
17.480,-0.059
17.482,-0.061
17.484,-0.064
17.486,-0.067
17.488,-0.068
17.490,-0.069
17.492,-0.068
17.494,-0.066
17.496,-0.065
17.498,-0.063
17.500,-0.063
17.502,-0.063
17.504,-0.064
17.506,-0.064
17.508,-0.064
17.510,-0.064
17.512,-0.063
17.514,-0.063
17.516,-0.063
17.518,-0.063
17.520,-0.065
17.522,-0.067
17.524,-0.069
17.526,-0.072
17.528,-0.073
17.530,-0.074
17.532,-0.074
17.534,-0.073
17.536,-0.072
17.538,-0.070
17.540,-0.068
17.542,-0.066
17.544,-0.065
17.546,-0.065
17.548,-0.065
17.550,-0.067
17.552,-0.069
17.554,-0.072
17.556,-0.076
17.558,-0.079
17.560,-0.082
17.562,-0.084
17.564,-0.085
17.566,-0.087
17.568,-0.087
17.570,-0.088
17.572,-0.087
17.574,-0.085
17.576,-0.082
17.578,-0.078
17.580,-0.074
17.582,-0.071
17.584,-0.069
17.586,-0.068
17.588,-0.070
17.590,-0.073
17.592,-0.077
17.594,-0.081
17.596,-0.084
17.598,-0.085
17.600,-0.084
17.602,-0.080
17.604,-0.074
17.606,-0.066
17.608,-0.057
17.610,-0.048
17.612,-0.041
17.614,-0.037
17.616,-0.035
17.618,-0.035
17.620,-0.037
17.622,-0.040
17.624,-0.043
17.626,-0.045
17.628,-0.045
17.630,-0.044
17.632,-0.041
17.634,-0.036
17.636,-0.032
17.638,-0.027
17.640,-0.023
17.642,-0.020
17.644,-0.018
17.646,-0.017
17.648,-0.017
17.650,-0.017
17.652,-0.017
17.654,-0.016
17.656,-0.016
17.658,-0.015
17.660,-0.015
17.662,-0.016
17.664,-0.019
17.666,-0.024
17.668,-0.031
17.670,-0.039
17.672,-0.050
17.674,-0.061
17.676,-0.072
17.678,-0.081
17.680,-0.089
17.682,-0.094
17.684,-0.096
17.686,-0.097
17.688,-0.096
17.690,-0.094
17.692,-0.092
17.694,-0.090
17.696,-0.089
17.698,-0.087
17.700,-0.085
17.702,-0.083
17.704,-0.079
17.706,-0.077
17.708,-0.075
17.710,-0.075
17.712,-0.078
17.714,-0.084
17.716,-0.092
17.718,-0.099
17.720,-0.105
17.722,-0.109
17.724,-0.109
17.726,-0.106
17.728,-0.103
17.730,-0.100
17.732,-0.101
17.734,-0.105
17.736,-0.112
17.738,-0.115
17.740,-0.112
17.742,-0.094
17.744,-0.058
17.746,-0.002
17.748,0.075
17.750,0.166
17.752,0.264
17.754,0.359
17.756,0.438
17.758,0.491
17.760,0.510
17.762,0.489
17.764,0.431
17.766,0.342
17.768,0.234
17.770,0.122
17.772,0.020
17.774,-0.060
17.776,-0.113
17.778,-0.138
17.780,-0.140
17.782,-0.127
17.784,-0.108
17.786,-0.089
17.788,-0.075
17.790,-0.067
17.792,-0.065
17.794,-0.067
17.796,-0.070
17.798,-0.072
17.800,-0.071
17.802,-0.067
17.804,-0.061
17.806,-0.053
17.808,-0.045
17.810,-0.038
17.812,-0.034
17.814,-0.034
17.816,-0.036
17.818,-0.038
17.820,-0.041
17.822,-0.041
17.824,-0.038
17.826,-0.034
17.828,-0.029
17.830,-0.024
17.832,-0.021
17.834,-0.021
17.836,-0.024
17.838,-0.028
17.840,-0.031
17.842,-0.033
17.844,-0.032
17.846,-0.028
17.848,-0.023
17.850,-0.019
17.852,-0.015
17.854,-0.013
17.856,-0.013
17.858,-0.014
17.860,-0.015
17.862,-0.014
17.864,-0.011
17.866,-0.007
17.868,-0.001
17.870,0.005
17.872,0.009
17.874,0.013
17.876,0.014
17.878,0.014
17.880,0.013
17.882,0.013
17.884,0.013
17.886,0.014
17.888,0.016
17.890,0.019
17.892,0.022
17.894,0.024
17.896,0.025
17.898,0.025
17.900,0.023
17.902,0.022
17.904,0.022
17.906,0.024
17.908,0.029
17.910,0.037
17.912,0.046
17.914,0.056
17.916,0.064
17.918,0.071
17.920,0.075
17.922,0.076
17.924,0.076
17.926,0.076
17.928,0.076
17.930,0.077
17.932,0.080
17.934,0.084
17.936,0.089
17.938,0.094
17.940,0.099
17.942,0.104
17.944,0.108
17.946,0.112
17.948,0.116
17.950,0.120
17.952,0.124
17.954,0.128
17.956,0.133
17.958,0.139
17.960,0.147
17.962,0.155
17.964,0.162
17.966,0.169
17.968,0.175
17.970,0.180
17.972,0.183
17.974,0.187
17.976,0.192
17.978,0.197
17.980,0.204
17.982,0.212
17.984,0.219
17.986,0.225
17.988,0.231
17.990,0.236
17.992,0.243
17.994,0.250
17.996,0.258
17.998,0.267
18.000,0.276
18.002,0.283
18.004,0.288
18.006,0.290
18.008,0.290
18.010,0.288
18.012,0.285
18.014,0.281
18.016,0.278
18.018,0.275
18.020,0.272
18.022,0.269
18.024,0.266
18.026,0.262
18.028,0.256
18.030,0.250
18.032,0.240
18.034,0.229
18.036,0.216
18.038,0.200
18.040,0.183
18.042,0.166
18.044,0.148
18.046,0.131
18.048,0.116
18.050,0.101
18.052,0.087
18.054,0.074
18.056,0.061
18.058,0.049
18.060,0.037
18.062,0.025
18.064,0.014
18.066,0.005
18.068,-0.004
18.070,-0.011
18.072,-0.018
18.074,-0.024
18.076,-0.031
18.078,-0.038
18.080,-0.045
18.082,-0.051
18.084,-0.057
18.086,-0.062
18.088,-0.066
18.090,-0.069
18.092,-0.071
18.094,-0.073
18.096,-0.075
18.098,-0.078
18.100,-0.080
18.102,-0.082
18.104,-0.083
18.106,-0.084
18.108,-0.085
18.110,-0.084
18.112,-0.084
18.114,-0.083
18.116,-0.083
18.118,-0.083
18.120,-0.085
18.122,-0.088
18.124,-0.091
18.126,-0.094
18.128,-0.097
18.130,-0.098
18.132,-0.097
18.134,-0.095
18.136,-0.090
18.138,-0.084
18.140,-0.079
18.142,-0.074
18.144,-0.071
18.146,-0.070
18.148,-0.072
18.150,-0.074
18.152,-0.077
18.154,-0.080
18.156,-0.082
18.158,-0.083
18.160,-0.082
18.162,-0.079
18.164,-0.077
18.166,-0.074
18.168,-0.071
18.170,-0.069
18.172,-0.067
18.174,-0.065
18.176,-0.064
18.178,-0.062
18.180,-0.059
18.182,-0.057
18.184,-0.055
18.186,-0.055
18.188,-0.055
18.190,-0.057
18.192,-0.061
18.194,-0.065
18.196,-0.068
18.198,-0.070
18.200,-0.069
18.202,-0.066
18.204,-0.060
18.206,-0.052
18.208,-0.043
18.210,-0.036
18.212,-0.031
18.214,-0.031
18.216,-0.034
18.218,-0.039
18.220,-0.047
18.222,-0.055
