'Elapsed time','EMG'
'seconds','mV'
0.000,0.090
0.000,0.077
0.001,0.077
0.001,0.073
0.001,0.072
0.001,0.067
0.002,0.068
0.002,0.092
0.002,0.095
0.002,0.203
0.003,0.210
0.003,0.772
0.003,0.833
0.003,-0.438
0.004,-0.420
0.004,0.040
0.004,0.060
0.004,0.250
0.004,0.210
0.005,-0.602
0.005,-0.637
0.005,-1.192
0.005,-1.190
0.006,-0.750
0.006,-0.722
0.006,-0.150
0.006,-0.132
0.007,0.118
0.007,0.123
0.007,0.160
0.007,0.153
0.008,0.027
0.008,0.020
0.008,-0.013
0.009,0.008
0.009,0.032
0.009,0.033
0.009,0.080
0.009,0.082
0.010,0.123
0.010,0.123
0.010,0.130
0.011,0.127
0.011,0.120
0.011,0.122
0.011,0.103
0.011,0.103
0.012,0.085
0.012,0.083
0.012,0.075
0.013,0.075
0.013,0.082
0.013,0.083
0.013,0.103
0.013,0.103
0.014,0.113
0.014,0.108
0.014,0.087
0.015,0.083
0.015,0.015
0.015,0.013
0.015,-0.037
0.015,-0.038
0.016,-0.085
0.016,-0.083
0.016,-0.095
0.017,-0.087
0.017,-0.063
0.017,-0.063
0.017,-0.058
0.018,-0.065
0.018,-0.085
0.018,-0.083
0.018,-0.103
0.018,-0.105
0.019,-0.110
0.019,-0.107
0.019,-0.085
0.019,-0.083
0.020,-0.052
0.020,-0.048
0.020,-0.035
0.021,-0.035
0.021,-0.025
0.021,-0.020
0.021,-0.028
0.021,-0.027
0.022,-0.040
0.022,-0.038
0.022,-0.030
0.022,-0.028
0.023,-0.015
0.023,-0.017
0.023,-0.012
0.024,-0.015
0.024,-0.010
0.024,-0.013
0.024,-0.005
0.025,-0.007
0.025,0.005
0.025,0.008
0.025,-0.002
0.025,-0.002
0.026,-0.017
0.026,-0.022
0.026,-0.015
0.026,-0.015
0.027,-0.008
0.027,-0.008
0.027,0.002
0.028,0.000
0.028,0.020
0.028,0.022
0.028,0.043
0.029,0.045
0.029,0.087
0.029,0.090
0.029,0.135
0.029,0.137
0.030,0.175
0.030,0.173
0.030,0.187
0.030,0.180
0.031,-0.150
0.031,-0.188
0.031,-0.702
0.032,-0.682
0.032,-0.362
0.032,-0.352
0.032,-0.143
0.033,-0.138
0.033,-0.030
0.033,-0.027
0.033,0.037
0.034,0.038
0.034,0.078
0.034,0.080
0.034,0.102
0.035,0.102
0.035,0.113
0.035,0.112
0.035,0.097
0.035,0.095
0.036,0.077
0.036,0.075
0.036,0.062
0.036,0.060
0.037,0.040
0.037,0.042
0.037,0.032
0.037,0.035
0.038,0.030
0.038,0.032
0.038,0.025
0.038,0.025
0.039,0.013
0.039,0.015
0.039,0.008
0.040,0.013
0.040,0.023
0.040,0.025
0.040,0.037
0.041,0.035
0.041,0.043
0.041,0.042
0.041,0.047
0.042,0.048
0.042,0.052
0.042,0.052
0.042,0.042
0.043,0.040
0.043,-0.015
0.043,-0.023
0.043,-0.177
0.043,-0.182
0.044,-0.240
0.044,-0.243
0.044,-0.210
0.044,-0.208
0.045,-0.112
0.045,-0.107
0.045,0.032
0.045,0.037
0.046,0.153
0.046,0.160
0.046,0.287
0.046,0.290
0.047,0.388
0.047,0.393
0.047,0.468
0.048,0.463
0.048,0.052
0.048,0.012
0.048,-1.265
0.049,-1.447
0.049,-0.923
0.049,-0.902
0.049,-0.207
0.050,-0.183
0.050,0.173
0.050,0.180
0.050,0.265
0.051,0.268
0.051,0.248
0.051,0.247
0.051,0.185
0.051,0.182
0.052,0.085
0.052,0.082
0.052,-0.005
0.052,-0.010
0.053,-0.057
0.053,-0.062
0.053,-0.045
0.053,-0.043
0.054,0.012
0.054,0.013
0.054,0.053
0.054,0.055
0.055,0.088
0.055,0.088
0.055,0.105
0.056,0.107
0.056,0.087
0.056,0.087
0.056,0.040
0.057,0.038
0.057,0.000
0.057,-0.003
0.057,-0.033
0.058,-0.037
0.058,-0.053
0.058,-0.052
0.058,-0.065
0.059,-0.067
0.059,-0.073
0.059,-0.070
0.059,-0.042
0.059,-0.042
0.060,-0.003
0.060,0.000
0.060,0.053
0.060,0.055
0.061,0.123
0.061,0.125
0.061,0.200
0.061,0.202
0.062,0.268
0.062,0.270
0.062,0.323
0.062,0.325
0.063,0.368
0.063,0.370
0.063,0.420
0.064,0.425
0.064,0.262
0.064,0.243
0.064,-0.565
0.065,-0.603
0.065,-1.092
0.065,-1.092
0.065,-0.825
0.066,-0.803
0.066,-0.245
0.066,-0.225
0.066,0.138
0.067,0.148
0.067,0.272
0.067,0.273
0.067,0.293
0.068,0.292
0.068,0.263
0.068,0.262
0.068,0.220
0.069,0.217
0.069,0.165
0.069,0.163
0.069,0.125
0.070,0.123
0.070,0.075
0.070,0.072
0.070,0.038
0.070,0.030
0.071,0.043
0.071,0.042
0.071,0.083
0.071,0.087
0.072,0.172
0.072,0.178
0.072,0.280
0.072,0.285
0.073,0.400
0.073,0.405
0.073,0.532
0.073,0.538
0.074,0.748
0.074,0.760
0.074,1.010
0.074,1.020
0.075,1.277
0.075,1.272
0.075,0.317
0.075,0.250
0.076,-0.953
0.076,-0.408
0.076,-2.803
0.076,-1.588
0.077,-2.832
0.077,-2.872
0.077,-1.335
0.077,-1.263
0.078,0.108
0.078,0.140
0.078,0.550
0.079,0.558
0.079,0.612
0.079,0.590
0.079,0.450
0.080,0.443
0.080,0.292
0.080,0.283
0.080,0.153
0.081,0.148
0.081,0.103
0.081,0.103
0.081,0.113
0.082,0.117
0.082,0.102
0.082,0.100
0.082,0.067
0.083,0.065
0.083,0.015
0.083,0.013
0.083,-0.048
0.084,-0.052
0.084,-0.087
0.084,-0.087
0.084,-0.072
0.085,-0.073
0.085,-0.037
0.085,-0.035
0.085,0.023
0.086,0.027
0.086,0.107
0.086,0.110
0.086,0.193
0.086,0.197
0.087,0.222
0.087,0.222
0.087,0.180
0.087,0.178
0.088,0.077
0.088,0.072
0.088,-0.008
0.088,-0.015
0.089,0.000
0.089,0.003
0.089,0.090
0.089,0.095
0.090,0.263
0.090,0.275
0.090,0.768
0.090,1.772
0.091,0.282
0.091,-0.113
0.091,2.312
0.091,2.369
0.092,-1.142
0.092,-1.045
0.092,0.305
0.092,0.328
0.093,0.522
0.093,0.525
0.093,0.508
0.093,0.507
0.094,0.488
0.094,0.485
0.094,0.493
0.095,0.495
0.095,0.542
0.095,0.545
0.095,0.653
0.096,0.718
0.096,0.657
0.096,0.643
0.096,-0.183
0.097,-0.235
0.097,-1.030
0.097,-1.092
0.097,-0.868
0.098,-0.845
0.098,-0.252
0.098,-0.228
0.098,0.142
0.099,0.150
0.099,0.247
0.099,0.245
0.099,0.143
0.100,0.137
0.100,0.052
0.100,0.062
0.100,0.053
0.101,0.052
0.101,0.060
0.101,0.060
0.101,0.075
0.102,0.078
0.102,0.070
0.102,0.070
0.102,0.055
0.102,0.055
0.103,0.040
0.103,0.033
0.103,0.047
0.103,0.047
0.104,0.087
0.104,0.087
0.104,0.122
0.104,0.123
0.105,0.173
0.105,0.173
0.105,0.185
0.105,0.178
0.106,0.108
0.106,0.105
0.106,-0.012
0.106,-0.017
0.107,-0.113
0.107,-0.123
0.107,-0.100
0.107,-0.098
0.108,-0.057
0.108,-0.058
0.108,-0.175
0.108,-0.182
0.109,-0.253
0.109,-0.245
0.109,-0.073
0.110,-0.050
0.110,-0.123
0.110,-0.132
0.110,-0.303
0.111,-0.357
0.111,-0.308
0.111,-0.302
0.111,-0.010
0.112,0.003
0.112,0.220
0.112,0.225
0.112,0.315
0.113,0.317
0.113,0.333
0.113,0.332
0.113,0.298
0.114,0.295
0.114,0.215
0.114,0.212
0.114,0.132
0.115,0.128
0.115,0.058
0.115,0.055
0.115,0.022
0.116,0.023
0.116,0.050
0.116,0.052
0.116,0.075
0.117,0.077
0.117,0.088
0.117,0.087
0.117,0.093
0.117,0.088
0.118,0.093
0.118,0.090
0.118,0.053
0.118,0.052
0.119,0.035
0.119,0.040
0.119,-0.073
0.119,-0.095
0.120,-0.767
0.120,-0.815
0.120,-0.583
0.120,-0.565
0.121,-0.257
0.121,-0.248
0.121,-0.062
0.121,-0.058
0.122,0.042
0.122,0.045
0.122,0.092
0.122,0.093
0.123,0.112
0.123,0.113
0.123,0.143
0.123,0.147
0.124,0.268
0.124,0.702
0.124,0.020
0.124,-0.192
0.125,-0.618
0.125,-0.605
0.125,-0.232
0.126,-0.218
0.126,0.017
0.126,0.022
0.126,0.065
0.127,0.060
0.127,0.077
0.127,0.077
0.127,0.095
0.128,0.093
0.128,0.100
0.128,0.098
0.128,0.052
0.129,0.045
0.129,-0.140
0.129,-0.143
0.129,-0.217
0.130,-0.223
0.130,-0.203
0.130,-0.202
0.130,-0.102
0.131,-0.097
0.131,0.045
0.131,0.050
0.131,0.162
0.132,0.167
0.132,0.287
0.132,0.290
0.132,0.382
0.133,0.385
0.133,0.448
0.133,0.452
0.133,0.190
0.134,0.147
0.134,-1.205
0.134,-1.483
0.134,-0.990
0.135,-0.970
0.135,-0.298
0.135,-0.270
0.135,0.138
0.136,0.148
0.136,0.280
0.136,0.283
0.136,0.303
0.137,0.297
0.137,0.263
0.137,0.260
0.137,0.200
0.138,0.197
0.138,0.138
0.138,0.137
0.138,0.092
0.139,0.092
0.139,0.067
0.139,0.065
0.139,0.048
0.140,0.048
0.140,0.037
0.140,0.040
0.140,0.028
0.141,0.028
0.141,0.018
0.141,0.018
0.141,0.005
0.141,0.005
0.142,-0.002
0.142,0.002
0.142,-0.005
0.142,-0.003
0.143,-0.013
0.143,-0.012
0.143,-0.007
0.143,-0.008
0.144,0.008
0.144,0.010
0.144,0.020
0.144,0.018
0.145,0.025
0.145,0.023
0.145,0.028
0.145,0.025
0.146,0.010
0.146,0.010
0.146,-0.028
0.146,-0.030
0.147,-0.072
0.147,-0.072
0.147,-0.085
0.147,-0.080
0.148,-0.055
0.148,-0.053
0.148,-0.018
0.148,-0.017
0.149,0.005
0.149,0.005
0.149,0.013
0.149,0.017
0.150,0.012
0.150,0.012
0.150,0.005
0.150,0.010
0.151,0.003
0.151,0.005
0.151,-0.005
0.151,-0.003
0.152,-0.015
0.152,-0.017
0.152,-0.023
0.152,-0.023
0.153,-0.030
0.153,-0.028
0.153,-0.022
0.153,-0.023
0.154,-0.018
0.154,-0.023
0.154,-0.017
0.154,-0.018
0.155,-0.012
0.155,-0.012
0.155,-0.005
0.155,-0.007
0.156,-0.013
0.156,-0.015
0.156,-0.027
0.157,-0.027
0.157,-0.023
0.157,-0.022
0.157,-0.028
0.158,-0.030
0.158,-0.027
0.158,-0.030
0.158,-0.037
0.159,-0.037
0.159,-0.045
0.159,-0.047
0.159,-0.042
0.160,-0.043
0.160,-0.025
0.160,-0.027
0.160,-0.018
0.161,-0.020
0.161,-0.008
0.161,-0.007
0.161,0.003
0.162,0.003
0.162,0.012
0.162,0.008
0.162,0.015
0.163,0.013
0.163,0.032
0.163,0.032
0.163,0.047
0.164,0.047
0.164,0.068
0.164,0.067
0.164,0.093
0.165,0.095
0.165,0.127
0.165,0.125
0.165,0.135
0.166,0.137
0.166,0.130
0.166,0.128
0.166,0.118
0.167,0.120
0.167,0.098
0.167,0.098
0.167,0.065
0.168,0.065
0.168,0.020
0.168,0.018
0.168,-0.018
0.169,-0.020
0.169,-0.062
0.169,-0.063
0.169,-0.113
0.170,-0.112
0.170,-0.153
0.170,-0.155
0.170,-0.168
0.171,-0.163
0.171,-0.132
0.171,-0.130
0.171,-0.097
0.172,-0.093
0.172,-0.048
0.172,-0.047
0.172,-0.010
0.172,-0.008
0.173,0.015
0.173,0.018
0.173,0.008
0.173,0.007
0.174,-0.002
0.174,-0.002
0.174,0.010
0.174,0.013
0.175,0.003
0.175,0.005
0.175,0.013
0.175,0.013
0.176,0.018
0.176,0.015
0.176,0.025
0.176,0.028
0.177,0.067
0.177,0.073
0.177,0.063
0.177,0.067
0.178,0.095
0.178,0.095
0.178,0.170
0.178,0.173
0.179,0.362
0.179,0.370
0.179,0.622
0.179,0.637
0.180,0.795
0.180,0.737
0.180,-0.680
0.180,0.100
0.181,-1.887
0.181,-2.528
0.181,-0.665
0.181,-0.638
0.182,-0.583
0.182,-0.588
0.182,-0.093
0.182,-0.068
0.183,0.287
0.183,0.293
0.183,0.403
0.183,0.405
0.184,0.418
0.184,0.408
0.184,0.357
0.184,0.353
0.185,0.278
0.185,0.275
0.185,0.200
0.185,0.197
0.186,0.138
0.186,0.137
0.186,0.070
0.186,0.067
0.187,-0.008
0.187,-0.010
0.187,-0.050
0.188,-0.052
0.188,-0.062
0.188,-0.063
0.188,-0.053
0.189,-0.052
0.189,-0.033
0.189,-0.033
0.189,-0.020
0.190,-0.020
0.190,-0.033
0.190,-0.032
0.190,-0.038
0.191,-0.038
0.191,-0.017
0.191,-0.020
0.191,-0.005
0.192,-0.007
0.192,0.000
0.192,-0.002
0.192,-0.005
0.193,-0.005
0.193,-0.023
0.193,-0.023
0.193,-0.042
0.194,-0.040
0.194,-0.055
0.194,-0.052
0.194,-0.057
0.195,-0.052
0.195,-0.058
0.195,-0.057
0.195,-0.062
0.196,-0.052
0.196,-0.060
0.196,-0.055
0.196,-0.045
0.197,-0.043
0.197,-0.033
0.197,-0.037
0.197,-0.030
0.198,-0.030
0.198,-0.037
0.198,-0.037
0.198,-0.030
0.199,-0.032
0.199,-0.025
0.199,-0.025
0.199,-0.012
0.200,-0.010
0.200,0.000
0.200,0.002
0.200,0.007
0.201,0.003
0.201,0.008
0.201,0.008
0.201,0.003
0.202,0.005
0.202,0.000
0.202,-0.002
0.202,-0.010
0.203,-0.008
0.203,-0.015
0.203,-0.012
0.203,-0.018
0.203,-0.017
0.204,-0.022
0.204,-0.023
0.204,-0.027
0.204,-0.025
0.205,-0.032
0.205,-0.030
0.205,-0.025
0.205,-0.022
0.206,-0.027
0.206,-0.018
0.206,-0.023
0.206,-0.018
0.207,-0.005
0.207,-0.003
0.207,0.032
0.207,0.033
0.208,0.068
0.208,0.070
0.208,0.103
0.208,0.107
0.209,0.148
0.209,0.147
0.209,0.197
0.209,0.200
0.210,0.282
0.210,0.282
0.210,0.348
0.210,0.357
0.211,0.307
0.211,0.298
0.211,0.110
0.211,0.170
0.212,-0.392
0.212,-0.197
0.212,-1.187
0.212,-0.798
0.213,-2.118
0.213,-1.690
0.213,-0.485
0.213,-0.433
0.214,0.400
0.214,0.505
0.214,0.370
0.214,0.350
0.215,-0.545
0.215,-0.578
0.215,-0.825
0.215,-0.818
0.216,-0.432
0.216,-0.408
0.216,0.090
0.216,0.107
0.217,0.352
0.217,0.358
0.217,0.420
0.217,0.428
0.218,0.405
0.218,0.402
0.218,0.345
0.218,0.343
0.219,0.290
0.219,0.288
0.219,0.253
0.220,0.253
0.220,0.222
0.220,0.220
0.220,0.183
0.221,0.182
0.221,0.157
0.221,0.157
0.221,0.140
0.222,0.138
0.222,0.112
0.222,0.110
0.222,0.080
0.223,0.080
0.223,0.072
0.223,0.070
0.223,0.077
0.224,0.077
0.224,0.083
0.224,0.083
0.224,0.095
0.225,0.093
0.225,0.113
0.225,0.113
0.225,0.150
0.226,0.152
0.226,0.203
0.226,0.207
0.226,0.313
0.227,0.318
0.227,0.418
0.227,0.423
0.227,0.543
0.228,0.545
0.228,0.178
0.228,0.140
0.228,-0.972
0.229,-1.010
0.229,-1.552
0.229,-1.537
0.229,-0.980
0.230,-0.947
0.230,-0.230
0.230,-0.207
0.230,0.258
0.231,0.272
0.231,0.528
0.231,0.533
0.231,0.560
0.232,0.560
0.232,0.767
0.232,0.785
0.232,1.840
0.233,1.900
0.233,-1.570
0.233,-1.493
0.233,2.885
0.234,-2.167
0.234,-0.735
0.234,-0.692
0.234,-1.102
0.234,-0.900
0.235,-0.055
0.235,-0.023
0.235,0.572
0.235,0.588
0.236,0.793
0.236,0.802
0.236,0.777
0.236,0.775
0.237,0.670
0.237,0.665
0.237,0.525
0.237,0.518
0.238,0.400
0.238,0.397
0.238,0.332
0.238,0.330
0.239,0.292
0.239,0.288
0.239,0.240
0.239,0.237
0.240,0.147
0.240,0.135
0.240,-0.595
0.240,-0.733
0.241,-0.588
0.241,-0.577
0.241,-0.285
0.241,-0.275
0.242,-0.107
0.242,-0.102
0.242,-0.012
0.242,-0.007
0.243,0.078
0.243,0.083
0.243,0.143
0.243,0.147
0.244,0.173
0.244,0.172
0.244,0.178
0.244,0.183
0.245,0.178
0.245,0.180
0.245,0.187
0.245,0.187
0.246,0.178
0.246,0.178
0.246,0.165
0.246,0.167
0.247,0.147
0.247,0.147
0.247,0.130
0.247,0.130
0.248,0.113
0.248,0.112
0.248,0.093
0.248,0.095
0.249,0.078
0.249,0.077
0.249,0.063
0.249,0.063
0.250,0.028
0.250,0.100
0.250,-1.187
0.251,-2.567
0.251,-1.663
0.251,-0.043
0.251,-0.010
0.252,0.373
0.252,0.383
0.252,0.452
0.252,0.430
0.253,0.328
0.253,0.323
0.253,0.213
0.253,0.210
0.254,0.122
0.254,0.118
0.254,0.055
0.254,0.053
0.255,0.018
0.255,0.018
0.255,0.000
0.255,0.002
0.256,-0.005
0.256,-0.003
0.256,0.002
0.256,0.000
0.257,0.007
0.257,0.007
0.257,0.015
0.257,0.015
0.258,0.022
0.258,0.022
0.258,0.012
0.258,0.010
0.259,0.002
0.259,0.003
0.259,-0.003
0.259,-0.002
0.260,0.003
0.260,0.003
0.260,0.000
0.260,0.005
0.261,0.013
0.261,0.013
0.261,0.018
0.261,0.018
0.262,0.023
0.262,0.018
0.262,0.013
0.262,0.017
0.263,0.010
0.263,0.012
0.263,0.005
0.263,0.007
0.264,0.002
0.264,0.002
0.264,0.003
0.264,0.000
0.265,0.007
0.265,0.000
0.265,-0.007
0.265,-0.003
0.266,-0.010
0.266,-0.007
0.266,-0.012
0.266,-0.012
0.267,-0.008
0.267,-0.012
0.267,-0.008
0.267,-0.010
0.268,-0.007
0.268,-0.007
0.268,-0.012
0.268,-0.007
0.269,-0.015
0.269,-0.013
0.269,-0.022
0.269,-0.023
0.270,-0.022
0.270,-0.023
0.270,-0.020
0.270,-0.022
0.271,-0.015
0.271,-0.017
0.271,-0.012
0.271,-0.013
0.272,-0.007
0.272,-0.007
0.272,-0.003
0.272,-0.003
0.273,0.002
0.273,-0.005
0.273,0.000
0.273,-0.002
0.274,-0.008
0.274,-0.008
0.274,-0.020
0.274,-0.020
0.275,-0.025
0.275,-0.025
0.275,-0.028
0.275,-0.030
0.276,-0.023
0.276,-0.018
0.276,-0.025
0.276,-0.027
0.277,-0.023
0.277,-0.025
0.277,-0.018
0.277,-0.018
0.278,-0.023
0.278,-0.027
0.278,-0.020
0.278,-0.020
0.279,-0.015
0.279,-0.013
0.279,-0.010
0.279,-0.008
0.280,-0.012
0.280,-0.010
0.280,-0.005
0.280,-0.007
0.281,-0.003
0.281,-0.005
0.281,0.003
0.281,0.002
0.281,0.007
0.282,0.005
0.282,0.008
0.282,0.010
0.282,0.007
0.283,0.012
0.283,0.008
0.283,0.008
0.283,0.012
0.284,0.012
0.284,0.008
0.284,0.012
0.284,0.015
0.285,0.015
0.285,0.012
0.285,0.012
0.285,0.017
0.286,0.013
0.286,0.017
0.286,0.013
0.286,0.017
0.287,0.015
0.287,0.012
0.287,0.012
0.287,0.008
0.288,0.010
0.288,0.005
0.288,0.008
0.288,0.005
0.289,0.005
0.289,0.010
0.289,0.005
0.289,0.010
0.290,0.010
0.290,0.023
0.290,0.023
0.290,0.035
0.291,0.035
0.291,0.038
0.291,0.037
0.291,0.028
0.292,0.028
0.292,0.002
0.292,0.000
0.292,-0.035
0.293,-0.035
0.293,-0.053
0.293,-0.055
0.293,-0.038
0.294,-0.042
0.294,-0.030
0.294,-0.030
0.294,-0.020
0.295,-0.020
0.295,-0.015
0.295,-0.017
0.295,-0.010
0.296,-0.013
0.296,-0.007
0.296,-0.007
0.296,-0.010
0.297,-0.008
0.297,-0.003
0.297,-0.005
0.297,-0.002
0.298,-0.005
0.298,0.000
0.298,-0.003
0.298,-0.005
0.299,-0.003
0.299,0.000
0.299,-0.002
0.299,-0.007
0.300,-0.005
0.300,-0.002
0.300,-0.005
0.300,-0.012
0.301,-0.008
0.301,-0.015
0.301,-0.013
0.301,-0.017
0.302,-0.017
0.302,-0.012
0.302,-0.015
0.302,-0.010
0.303,-0.013
0.303,-0.007
0.303,-0.010
0.303,-0.005
0.304,-0.008
0.304,-0.005
0.304,-0.008
0.304,-0.005
0.305,-0.008
0.305,0.002
0.305,0.003
0.305,0.010
0.306,0.013
0.306,0.010
0.306,0.010
0.306,0.000
0.307,0.000
0.307,-0.010
0.307,-0.008
0.307,-0.015
0.308,-0.017
0.308,-0.013
0.308,-0.015
0.308,-0.010
0.309,-0.010
0.309,-0.015
0.309,-0.013
0.309,-0.008
0.310,-0.010
0.310,-0.003
0.310,-0.003
0.310,-0.002
0.311,-0.003
0.311,0.003
0.311,0.003
0.311,0.010
0.312,0.012
0.312,0.020
0.312,0.020
0.312,0.025
0.313,0.023
0.313,0.027
0.313,0.028
0.314,0.025
0.314,0.027
0.314,0.038
0.314,0.040
0.315,0.053
0.315,0.053
0.315,0.063
0.315,0.063
0.316,0.072
0.316,0.067
0.316,0.037
0.316,0.037
0.317,-0.003
0.317,-0.003
0.317,-0.032
0.317,-0.033
0.318,-0.062
0.318,-0.062
0.318,-0.072
0.318,-0.067
0.319,-0.053
0.319,-0.052
0.319,-0.043
0.319,-0.045
0.320,-0.035
0.320,-0.035
0.320,-0.018
0.320,-0.018
0.321,-0.007
0.321,-0.007
0.321,0.005
0.321,0.007
0.322,0.002
0.322,0.003
0.322,-0.005
0.322,-0.007
0.323,-0.013
0.323,-0.013
0.323,-0.023
0.323,-0.020
0.324,-0.027
0.324,-0.025
0.324,-0.028
0.324,-0.028
0.325,-0.033
0.325,-0.032
0.325,-0.037
0.325,-0.037
0.326,-0.032
0.326,-0.035
0.326,-0.030
0.326,-0.033
0.327,-0.023
0.327,-0.025
0.327,-0.017
0.327,-0.015
0.328,0.002
0.328,0.002
0.328,0.015
0.328,0.012
0.329,0.022
0.329,0.022
0.329,0.032
0.329,0.030
0.330,0.037
0.330,0.035
0.330,0.042
0.330,0.037
0.331,0.043
0.331,0.040
0.331,0.047
0.331,0.038
0.332,0.042
0.332,0.040
0.332,0.032
0.332,0.032
0.333,0.020
0.333,0.020
0.333,0.010
0.333,0.012
0.334,0.007
0.334,0.013
0.334,0.007
0.334,0.010
0.335,0.005
0.335,0.007
0.335,0.003
0.335,0.003
0.336,0.008
0.336,0.007
0.336,0.002
0.336,0.002
0.337,0.005
0.337,0.005
0.337,0.002
0.337,0.003
0.338,0.000
0.338,0.002
0.338,-0.002
0.338,0.000
0.339,0.007
0.339,0.005
0.339,0.010
0.339,0.008
0.340,0.012
0.340,0.013
0.340,0.007
0.340,0.012
0.341,0.008
0.341,0.010
0.341,0.005
0.341,0.007
0.342,0.012
0.342,0.008
0.342,0.012
0.342,0.012
0.343,0.008
0.343,0.008
0.343,0.013
0.343,0.012
0.344,0.017
0.344,0.017
0.344,0.022
0.344,0.018
0.344,0.022
0.345,0.020
0.345,0.023
0.345,0.022
0.345,0.013
0.346,0.012
0.346,0.007
0.346,0.007
0.346,-0.003
0.347,0.000
0.347,-0.008
0.347,-0.007
0.347,-0.012
0.348,-0.008
0.348,-0.015
0.348,-0.015
0.348,-0.012
0.349,-0.013
0.349,-0.015
0.349,-0.015
0.349,-0.008
0.350,-0.012
0.350,-0.007
0.350,-0.008
0.350,-0.002
0.351,-0.003
0.351,0.003
0.351,0.000
0.351,0.007
0.352,0.007
0.352,0.013
0.352,0.012
0.352,0.018
0.353,0.018
0.353,0.013
0.353,0.012
0.353,-0.005
0.354,-0.005
0.354,-0.023
0.354,-0.023
0.354,-0.042
0.355,-0.042
0.355,-0.058
0.355,-0.057
0.355,-0.063
0.356,-0.062
0.356,-0.058
0.356,-0.058
0.356,-0.053
0.357,-0.053
0.357,-0.033
0.357,-0.035
0.357,-0.025
0.358,-0.025
0.358,-0.022
0.358,-0.022
0.358,-0.025
0.359,-0.027
0.359,-0.022
0.359,-0.022
0.359,0.008
0.360,0.013
0.360,0.102
0.360,0.105
0.360,0.205
0.361,0.210
0.361,0.332
0.361,0.338
0.361,0.522
0.362,0.600
0.362,0.500
0.362,0.482
0.362,-0.320
0.363,-0.362
0.363,-0.742
0.363,-0.578
0.363,0.428
0.364,0.872
0.364,-1.285
0.364,-1.430
0.364,-2.088
0.365,-1.372
0.365,-0.375
0.365,-0.372
0.365,-0.175
0.366,-0.167
0.366,0.050
0.366,0.057
0.366,0.113
0.367,0.117
0.367,0.262
0.367,0.268
0.367,0.360
0.368,0.363
0.368,0.438
0.368,0.440
0.368,0.500
0.369,0.513
0.369,0.400
0.369,0.380
0.369,-0.167
0.370,-0.190
0.370,-0.443
0.370,-0.425
0.370,-0.215
0.371,-0.203
0.371,0.037
0.371,0.043
0.371,0.167
0.372,0.168
0.372,0.208
0.372,0.205
0.372,0.172
0.373,0.168
0.373,0.117
0.373,0.115
0.373,0.087
0.374,0.085
0.374,0.068
0.374,0.068
0.374,0.060
0.375,0.060
0.375,0.047
0.375,0.047
0.376,0.035
0.376,0.035
0.376,0.028
0.376,0.030
0.377,0.037
0.377,0.037
0.377,0.030
0.377,0.033
0.378,0.028
0.378,0.032
0.378,0.038
0.378,0.035
0.379,0.030
0.379,0.032
0.379,0.023
0.379,0.023
0.380,0.015
0.380,0.017
0.380,0.013
0.380,0.015
0.381,0.018
0.381,0.020
0.381,0.015
0.381,0.018
0.382,0.013
0.382,0.017
0.382,0.007
0.382,0.008
0.383,0.003
0.383,0.003
0.383,-0.003
0.383,-0.002
0.384,-0.005
0.384,-0.003
0.384,-0.007
0.384,-0.005
0.385,-0.008
0.385,-0.005
0.385,-0.008
0.385,-0.005
0.386,-0.012
0.386,-0.012
0.386,-0.008
0.386,-0.013
0.387,-0.010
0.387,-0.013
0.387,-0.003
0.387,-0.007
0.388,0.000
0.388,-0.002
0.388,0.005
0.388,0.002
0.389,0.008
0.389,0.007
0.389,0.012
0.389,0.010
0.390,0.003
0.390,0.002
0.390,0.005
0.390,0.007
0.391,0.000
0.391,0.000
0.391,0.005
0.391,0.002
0.392,0.008
0.392,0.008
0.392,0.012
0.392,0.010
0.393,0.005
0.393,0.005
0.393,-0.010
0.393,-0.010
0.394,-0.022
0.394,-0.020
0.394,-0.037
0.394,-0.038
0.395,-0.052
0.395,-0.052
0.395,-0.042
0.395,-0.040
0.396,-0.023
0.396,-0.023
0.396,-0.005
0.396,-0.003
0.397,0.013
0.397,0.013
0.397,0.020
0.397,0.018
0.398,0.012
0.398,0.013
0.398,-0.008
0.398,-0.010
0.399,-0.038
0.399,-0.037
0.399,-0.047
0.399,-0.047
0.400,-0.035
0.400,-0.037
0.400,-0.023
0.400,-0.025
0.401,-0.020
0.401,-0.022
0.401,-0.015
0.401,-0.018
0.402,-0.013
0.402,-0.015
0.402,-0.017
0.402,-0.015
0.403,-0.020
0.403,-0.020
0.403,-0.015
0.403,-0.017
0.404,-0.013
0.404,-0.017
0.404,-0.012
0.404,-0.015
0.405,-0.012
0.405,-0.015
0.405,-0.010
0.405,-0.013
0.406,-0.008
0.406,-0.012
0.406,-0.007
0.406,-0.008
0.406,-0.003
0.407,-0.005
0.407,-0.003
0.407,-0.003
0.407,-0.008
0.408,-0.003
0.408,-0.008
0.408,-0.003
0.408,-0.007
0.409,-0.005
0.409,0.002
0.409,0.000
0.409,0.003
0.410,0.005
0.410,0.000
0.410,0.005
0.410,0.000
0.411,0.000
0.411,0.007
0.411,0.003
0.411,0.007
0.412,0.005
0.412,0.000
0.412,0.003
0.412,-0.005
0.413,-0.002
0.413,-0.010
0.413,-0.005
0.413,-0.010
0.414,-0.012
0.414,-0.023
0.414,-0.023
0.414,-0.027
0.415,-0.023
0.415,-0.028
0.415,-0.027
0.415,-0.018
0.416,-0.017
0.416,-0.007
0.416,-0.008
0.416,-0.020
0.417,-0.022
0.417,-0.037
0.417,-0.037
0.417,-0.052
0.418,-0.050
0.418,-0.047
0.418,-0.050
0.418,-0.045
0.419,-0.045
0.419,-0.027
0.419,-0.025
0.419,-0.018
0.420,-0.018
0.420,-0.023
0.420,-0.023
0.420,-0.018
0.421,-0.022
0.421,-0.017
0.421,-0.017
0.421,-0.008
0.422,-0.007
0.422,0.003
0.422,0.002
0.422,0.010
0.423,0.007
0.423,0.010
0.423,0.007
0.423,0.002
0.424,0.002
0.424,-0.007
0.424,-0.005
0.424,-0.010
0.425,-0.007
0.425,-0.012
0.425,-0.007
0.425,-0.013
0.426,-0.010
0.426,-0.015
0.426,-0.012
0.426,-0.017
0.427,-0.017
0.427,-0.020
0.427,-0.022
0.427,-0.017
0.428,-0.018
0.428,-0.015
0.428,-0.017
0.428,-0.012
0.429,-0.017
0.429,-0.013
0.429,-0.015
0.429,-0.012
0.430,-0.012
0.430,-0.003
0.430,-0.003
0.430,0.003
0.431,0.002
0.431,0.005
0.431,0.003
0.431,-0.005
0.432,-0.005
0.432,-0.012
0.432,-0.010
0.432,-0.018
0.433,-0.017
0.433,-0.022
0.433,-0.023
0.433,-0.018
0.434,-0.020
0.434,-0.015
0.434,-0.017
0.434,-0.020
0.435,-0.017
0.435,-0.010
0.435,-0.012
0.435,-0.008
0.436,-0.012
0.436,-0.007
0.436,-0.012
0.436,-0.007
0.437,-0.008
0.437,-0.005
0.437,-0.005
0.438,-0.002
0.438,-0.003
0.438,0.002
0.438,-0.002
0.439,0.002
0.439,0.000
0.439,0.003
0.439,0.000
0.440,0.003
0.440,0.002
0.440,-0.003
0.440,0.002
0.441,-0.003
0.441,-0.003
0.441,-0.010
0.441,-0.010
0.442,-0.005
0.442,-0.007
0.442,0.000
0.442,0.000
0.443,0.008
0.443,0.008
0.443,0.022
0.443,0.022
0.444,0.038
0.444,0.037
0.444,0.043
0.444,0.042
0.445,0.047
0.445,0.047
0.445,0.042
0.445,0.045
0.446,0.038
0.446,0.038
0.446,0.028
0.446,0.030
0.447,0.020
0.447,0.020
0.447,0.027
0.447,0.023
0.448,0.028
0.448,0.023
0.448,0.025
0.448,0.027
0.449,0.018
0.449,0.020
0.449,0.015
0.449,0.017
0.450,0.010
0.450,0.012
0.450,0.018
0.450,0.017
0.451,0.023
0.451,0.022
0.451,0.028
0.451,0.030
0.452,0.035
0.452,0.035
0.452,0.030
0.452,0.032
0.453,0.013
0.453,0.012
0.453,-0.005
0.453,-0.008
0.454,-0.028
0.454,-0.028
0.454,-0.038
0.454,-0.037
0.455,-0.058
0.455,-0.060
0.455,-0.083
0.455,-0.083
0.456,-0.100
0.456,-0.100
0.456,-0.085
0.456,-0.085
0.457,-0.063
0.457,-0.062
0.457,-0.038
0.457,-0.038
0.458,-0.018
0.458,-0.018
0.458,0.005
0.458,0.003
0.459,0.020
0.459,0.020
0.459,0.027
0.459,0.027
0.460,0.025
0.460,0.025
0.460,0.028
0.460,0.025
0.461,0.028
0.461,0.023
0.461,0.027
0.461,0.022
0.462,0.032
0.462,0.032
0.462,0.103
0.462,0.107
0.463,0.182
0.463,0.185
0.463,0.278
0.463,0.283
0.464,0.415
0.464,0.422
0.464,0.527
0.464,0.480
0.465,-0.170
0.465,-0.205
0.465,-0.873
0.465,-0.857
0.466,-0.210
0.466,-0.110
0.466,0.725
0.466,-0.215
0.467,-2.505
0.467,-2.015
0.467,-0.220
0.467,-0.167
0.468,0.328
0.468,0.342
0.468,0.472
0.468,0.467
0.469,0.398
0.469,0.395
0.469,0.317
0.469,0.315
0.469,0.245
0.470,0.242
0.470,0.173
0.470,0.172
0.470,0.143
0.471,0.143
0.471,0.137
0.471,0.138
0.471,0.142
0.472,0.140
0.472,0.148
0.472,0.148
0.472,0.168
0.473,0.168
0.473,0.228
0.473,0.232
0.473,0.333
0.474,0.447
0.474,0.132
0.474,0.068
0.474,-0.330
0.475,-0.358
0.475,-0.272
0.475,-0.260
0.475,-0.080
0.476,-0.077
0.476,0.062
0.476,0.068
0.476,0.193
0.477,0.197
0.477,0.272
0.477,0.273
0.477,0.313
0.478,0.328
0.478,0.310
0.478,0.307
0.478,-0.050
0.479,-0.078
0.479,-0.598
0.479,-0.608
0.479,-0.497
0.480,-0.485
0.480,-0.207
0.480,-0.197
0.480,0.020
0.481,0.025
0.481,0.130
0.481,0.132
0.481,0.155
0.482,0.157
0.482,0.145
0.482,0.145
0.482,0.125
0.483,0.123
0.483,0.088
0.483,0.085
0.483,0.050
0.484,0.050
0.484,0.025
0.484,0.023
0.484,0.067
0.485,0.063
0.485,-0.010
0.485,-0.008
0.485,0.007
0.486,0.008
0.486,0.030
0.486,0.030
0.486,0.062
0.487,0.063
0.487,0.075
0.487,0.072
0.487,0.060
0.488,0.060
0.488,0.030
0.488,0.028
0.488,-0.017
0.489,-0.018
0.489,-0.053
0.489,-0.057
0.489,-0.063
0.490,-0.062
0.490,-0.048
0.490,-0.050
0.490,-0.035
0.491,-0.035
0.491,-0.027
0.491,-0.027
0.491,-0.017
0.492,-0.017
0.492,-0.013
0.492,-0.013
0.492,-0.008
0.493,-0.013
0.493,-0.007
0.493,-0.007
0.493,-0.013
0.494,-0.012
0.494,-0.015
0.494,-0.013
0.494,-0.022
0.495,-0.022
0.495,-0.017
0.495,-0.018
0.495,-0.015
0.496,-0.020
0.496,-0.015
0.496,-0.020
0.496,-0.017
0.497,-0.018
0.497,-0.027
0.497,-0.025
0.497,-0.033
0.498,-0.030
0.498,-0.035
0.498,-0.033
0.498,-0.027
0.499,-0.027
0.499,-0.017
0.499,-0.015
0.499,-0.007
0.500,-0.010
0.500,0.013
0.500,0.100
0.500,0.013
0.501,0.033
0.501,0.035
0.501,0.030
0.501,0.032
0.502,0.023
0.502,0.023
0.502,-0.033
0.502,-0.037
0.503,-0.113
0.503,-0.118
0.503,-0.203
0.503,-0.213
0.504,-0.202
0.504,-0.202
0.504,-0.148
0.504,-0.145
0.505,-0.075
0.505,-0.072
0.505,-0.022
0.505,-0.018
0.506,0.015
0.506,0.015
0.506,0.025
0.506,0.027
0.507,0.018
0.507,0.020
0.507,0.007
0.507,0.007
0.508,-0.003
0.508,-0.005
0.508,0.000
0.508,-0.003
0.509,0.002
0.509,0.000
0.509,0.008
0.509,0.008
0.510,0.017
0.510,0.015
0.510,0.020
0.510,0.020
0.511,0.027
0.511,0.025
0.511,0.028
0.511,0.023
0.512,0.028
0.512,0.027
0.512,0.022
0.512,0.022
0.513,0.025
0.513,0.022
0.513,0.015
0.513,0.017
0.514,0.012
0.514,0.013
0.514,0.008
0.514,0.012
0.515,0.008
0.515,0.010
0.515,0.007
0.515,0.010
0.516,0.005
0.516,0.010
0.516,0.015
0.516,0.012
0.517,0.015
0.517,0.015
0.517,0.017
0.517,0.018
0.518,0.013
0.518,0.017
0.518,0.013
0.518,0.013
0.519,0.010
0.519,0.008
0.519,0.015
0.519,0.013
0.520,0.020
0.520,0.020
0.520,0.018
0.520,0.020
0.521,0.022
0.521,0.020
0.521,0.027
0.521,0.025
0.522,0.033
0.522,0.035
0.522,0.045
0.522,0.047
0.523,0.055
0.523,0.053
0.523,0.058
0.523,0.057
0.524,0.050
0.524,0.052
0.524,0.048
0.524,0.052
0.525,0.047
0.525,0.045
0.525,0.052
0.525,0.052
0.526,0.042
0.526,0.040
0.526,0.012
0.526,0.012
0.527,-0.013
0.527,-0.013
0.527,-0.047
0.527,-0.047
0.528,-0.077
0.528,-0.077
0.528,-0.085
0.528,-0.083
0.529,-0.092
0.529,-0.092
0.529,-0.100
0.529,-0.098
0.530,-0.085
0.530,-0.083
0.530,-0.065
0.530,-0.067
0.531,-0.047
0.531,-0.047
0.531,-0.030
0.531,-0.028
0.532,-0.020
0.532,-0.018
0.532,-0.012
0.532,-0.013
0.533,-0.018
0.533,-0.018
0.533,-0.027
0.533,-0.027
0.534,-0.022
0.534,-0.020
0.534,-0.013
0.534,-0.017
0.535,-0.010
0.535,-0.017
0.535,-0.012
0.535,-0.015
0.536,-0.007
0.536,-0.007
0.536,0.008
0.536,0.007
0.537,0.012
0.537,0.008
0.537,0.013
0.537,0.013
0.538,0.008
0.538,0.010
0.538,0.007
0.538,0.008
0.539,0.012
0.539,0.010
0.539,0.018
0.539,0.015
0.540,0.020
0.540,0.017
0.540,0.022
0.540,0.020
0.541,0.025
0.541,0.023
0.541,0.027
0.541,0.027
0.542,0.023
0.542,0.025
0.542,0.020
0.542,0.020
0.543,0.007
0.543,0.007
0.543,-0.017
0.543,-0.017
0.544,-0.042
0.544,-0.043
0.544,-0.065
0.544,-0.065
0.545,-0.082
0.545,-0.083
0.545,-0.088
0.545,-0.088
0.546,-0.077
0.546,-0.077
0.546,-0.063
0.546,-0.063
0.547,-0.045
0.547,-0.043
0.547,-0.028
0.547,-0.030
0.548,-0.010
0.548,-0.008
0.548,0.008
0.548,0.008
0.549,0.015
0.549,0.015
0.549,0.020
0.549,0.017
0.550,0.022
0.550,0.020
0.550,0.015
0.550,0.015
0.551,0.020
0.551,0.018
0.551,0.012
0.551,0.012
0.552,0.017
0.552,0.018
0.552,0.012
0.552,0.012
0.553,-0.003
0.553,-0.005
0.553,-0.012
0.553,-0.010
0.554,-0.003
0.554,-0.003
0.554,0.000
0.554,-0.002
0.555,0.007
0.555,0.005
0.555,0.010
0.555,0.008
0.556,0.012
0.556,0.012
0.556,0.017
0.556,0.017
0.557,0.013
0.557,0.017
0.557,0.013
0.557,0.012
0.558,0.017
0.558,0.015
0.558,0.012
0.558,0.010
0.559,0.015
0.559,0.012
0.559,0.008
0.559,0.010
0.560,0.013
0.560,0.010
0.560,0.017
0.560,0.012
0.561,0.015
0.561,0.013
0.561,0.012
0.561,0.010
0.562,0.015
0.562,0.013
0.562,0.010
0.562,0.010
0.563,0.015
0.563,0.013
0.563,0.017
0.564,0.015
0.564,0.020
0.564,0.020
0.564,0.017
0.565,0.018
0.565,0.023
0.565,0.022
0.565,0.018
0.566,0.020
0.566,0.015
0.566,0.017
0.566,0.012
0.567,0.015
0.567,0.065
0.567,0.068
0.567,0.157
0.568,0.160
0.568,0.262
0.568,0.268
0.568,0.393
0.569,0.400
0.569,0.580
0.569,0.598
0.569,0.307
0.570,0.275
0.570,-0.620
0.570,-0.798
0.570,-0.202
0.571,-0.285
0.571,0.770
0.571,0.773
0.571,-2.490
0.572,-2.557
0.572,-1.138
0.572,-1.047
0.572,0.238
0.573,0.250
0.573,0.572
0.573,0.580
0.573,0.672
0.574,0.687
0.574,0.018
0.574,-0.008
0.574,-0.227
0.575,-0.242
0.575,-0.150
0.575,-0.142
0.575,-0.042
0.576,-0.037
0.576,0.112
0.576,0.117
0.576,0.227
0.577,0.230
0.577,0.317
0.577,0.320
0.577,0.380
0.578,0.398
0.578,0.340
0.578,0.328
0.578,-0.192
0.579,-0.218
0.579,-0.537
0.579,-0.535
0.579,-0.335
0.580,-0.322
0.580,-0.040
0.580,-0.030
0.580,0.152
0.581,0.157
0.581,0.215
0.581,0.220
0.581,0.193
0.582,0.190
0.582,0.127
0.582,0.123
0.582,0.063
0.583,0.063
0.583,0.040
0.583,0.042
0.583,0.037
0.584,0.038
0.584,0.035
0.584,0.040
0.584,0.035
0.585,0.038
0.585,0.042
0.585,0.038
0.585,0.032
0.586,0.037
0.586,0.020
0.586,0.020
0.586,0.003
0.587,0.007
0.587,-0.012
0.587,-0.013
0.587,-0.033
0.588,-0.033
0.588,-0.045
0.588,-0.047
0.588,-0.052
0.589,-0.050
0.589,-0.043
0.589,-0.043
0.589,-0.028
0.590,-0.030
0.590,-0.017
0.590,-0.017
0.590,-0.005
0.591,-0.005
0.591,0.008
0.591,0.010
0.591,0.022
0.592,0.022
0.592,0.028
0.592,0.027
0.592,0.030
0.593,0.028
0.593,0.023
0.593,0.027
0.593,0.018
0.594,0.022
0.594,0.013
0.594,0.013
0.594,0.003
0.595,0.003
0.595,-0.003
0.595,-0.003
0.595,-0.015
0.596,-0.017
0.596,-0.037
0.596,-0.038
0.596,-0.053
0.597,-0.053
0.597,-0.060
0.597,-0.060
0.597,-0.070
0.598,-0.070
0.598,-0.063
0.598,-0.065
0.598,-0.052
0.599,-0.052
0.599,-0.040
0.599,-0.040
0.599,-0.023
0.600,-0.023
0.600,-0.013
0.600,-0.015
0.600,-0.002
0.601,-0.003
0.601,0.003
0.601,0.003
0.601,0.000
0.602,0.002
0.602,0.005
0.602,0.003
0.602,0.008
0.603,0.007
0.603,0.012
0.603,0.012
0.603,0.015
0.604,0.012
0.604,0.007
0.604,0.007
0.604,0.002
0.605,0.005
0.605,0.000
0.605,0.000
0.605,-0.003
0.606,-0.005
0.606,0.000
0.606,-0.002
0.606,0.003
0.607,0.000
0.607,0.005
0.607,0.005
0.607,0.003
0.608,0.008
0.608,0.003
0.608,0.003
0.608,0.005
0.609,0.005
0.609,0.010
0.609,0.007
0.609,0.010
0.610,0.007
0.610,0.010
0.610,0.007
0.610,0.010
0.611,0.007
0.611,0.010
0.611,0.010
0.611,0.008
0.612,0.010
0.612,0.005
0.612,0.008
0.612,0.005
0.613,0.008
0.613,0.002
0.613,0.003
0.613,-0.003
0.614,-0.003
0.614,-0.007
0.614,-0.007
0.614,-0.013
0.615,-0.015
0.615,-0.012
0.615,-0.015
0.615,-0.012
0.616,-0.012
0.616,-0.015
0.616,-0.010
0.616,-0.017
0.617,-0.017
0.617,-0.013
0.617,-0.017
0.617,-0.022
0.618,-0.022
0.618,-0.028
0.618,-0.025
0.618,-0.028
0.619,-0.028
0.619,-0.022
0.619,-0.023
0.619,-0.018
0.620,-0.018
0.620,-0.013
0.620,-0.015
0.620,-0.003
0.621,-0.003
0.621,0.013
0.621,0.013
0.621,0.028
0.622,0.027
0.622,0.032
0.622,0.032
0.622,0.025
0.623,0.025
0.623,0.018
0.623,0.020
0.623,0.008
0.624,0.007
0.624,-0.007
0.624,-0.007
0.624,-0.013
0.625,-0.013
0.625,-0.017
0.625,-0.015
0.625,-0.018
0.625,-0.015
0.626,-0.022
0.626,-0.025
0.626,-0.018
0.626,-0.020
0.627,-0.007
0.627,-0.008
0.627,0.000
0.627,0.000
0.628,0.005
0.628,0.003
0.628,0.007
0.628,0.003
0.629,0.000
0.629,0.002
0.629,0.007
0.629,0.008
0.630,0.025
0.630,0.025
0.630,0.037
0.630,0.035
0.631,0.043
0.631,0.047
0.631,0.035
0.631,0.033
0.632,-0.030
0.632,-0.032
0.632,-0.125
0.632,-0.130
0.633,-0.213
0.633,-0.228
0.633,-0.213
0.633,-0.212
0.634,-0.155
0.634,-0.153
0.634,-0.078
0.634,-0.077
0.635,-0.030
0.635,-0.027
0.635,0.010
0.635,0.012
0.636,0.032
0.636,0.033
0.636,0.028
0.636,0.030
0.637,0.035
0.637,0.032
0.637,0.035
0.637,0.035
0.638,0.045
0.638,0.045
0.638,0.050
0.638,0.047
0.639,0.050
0.639,0.047
0.639,0.037
0.639,0.037
0.640,0.018
0.640,0.018
0.640,-0.013
0.640,-0.015
0.641,-0.050
0.641,-0.053
0.641,-0.073
0.641,-0.072
0.642,-0.063
0.642,-0.067
0.642,-0.052
0.642,-0.050
0.643,-0.035
0.643,-0.035
0.643,-0.020
0.643,-0.020
0.644,-0.008
0.644,-0.010
0.644,0.000
0.644,-0.003
0.645,0.010
0.645,0.008
0.645,0.017
0.645,0.018
0.646,0.013
0.646,0.015
0.646,0.003
0.646,0.002
0.647,-0.010
0.647,-0.010
0.647,-0.020
0.647,-0.017
0.648,-0.020
0.648,-0.022
0.648,-0.018
0.648,-0.020
0.649,-0.017
0.649,-0.017
0.649,-0.020
0.649,-0.018
0.650,-0.012
0.650,-0.013
0.650,-0.008
0.650,-0.010
0.651,-0.003
0.651,-0.002
0.651,-0.005
0.651,-0.003
0.652,0.005
0.652,0.002
0.652,0.013
0.652,0.012
0.653,0.020
0.653,0.018
0.653,0.025
0.653,0.025
0.654,0.020
0.654,0.020
0.654,0.010
0.654,0.010
0.655,0.003
0.655,0.005
0.655,0.000
0.655,0.000
0.656,-0.005
0.656,-0.003
0.656,-0.010
0.656,-0.007
0.657,-0.013
0.657,-0.010
0.657,-0.003
0.657,-0.005
0.658,0.003
0.658,0.003
0.658,0.013
0.658,0.012
0.659,0.020
0.659,0.020
0.659,0.022
0.659,0.022
0.660,0.018
0.660,0.022
0.660,0.017
0.660,0.017
0.661,0.008
0.661,0.008
0.661,0.002
0.661,0.002
0.662,-0.002
0.662,0.000
0.662,0.003
0.662,0.003
0.663,0.000
0.663,0.002
0.663,-0.003
0.663,0.000
0.664,-0.003
0.664,-0.002
0.664,0.002
0.664,-0.002
0.665,0.005
0.665,0.005
0.665,0.003
0.665,0.005
0.666,0.002
0.666,0.003
0.666,-0.003
0.666,-0.003
0.667,0.002
0.667,0.002
0.667,-0.002
0.667,-0.002
0.668,0.003
0.668,0.002
0.668,-0.003
0.668,0.002
0.669,-0.007
0.669,-0.003
0.669,-0.012
0.669,-0.010
0.670,-0.022
0.670,-0.022
0.670,-0.017
0.670,-0.017
0.671,-0.010
0.671,-0.010
0.671,-0.002
0.671,-0.002
0.672,0.015
0.672,0.017
0.672,0.087
0.672,0.092
0.673,0.183
0.673,0.188
0.673,0.308
0.673,0.313
0.674,0.458
0.674,0.465
0.674,0.640
0.674,0.635
0.675,0.142
0.675,0.105
0.675,-0.720
0.675,-0.737
0.676,-0.170
0.676,-0.510
0.676,0.863
0.676,0.615
0.677,-2.330
0.677,-2.065
0.677,-0.512
0.677,-0.428
0.678,0.510
0.678,0.533
0.678,0.917
0.678,0.897
0.679,0.127
0.679,0.113
0.679,-0.015
0.679,-0.003
0.680,0.095
0.680,0.092
0.680,0.057
0.680,0.083
0.681,0.142
0.681,0.143
0.681,0.203
0.681,0.207
0.682,0.245
0.682,0.247
0.682,0.265
0.682,0.260
0.683,-0.002
0.683,-0.017
0.683,-0.625
0.683,-0.642
0.684,-0.703
0.684,-0.652
0.684,-0.375
0.684,-0.363
0.685,-0.128
0.685,-0.120
0.685,0.005
0.685,0.010
0.686,0.058
0.686,0.060
0.686,0.075
0.686,0.075
0.687,0.085
0.687,0.083
0.687,0.088
0.688,0.088
0.688,0.075
0.688,0.075
0.688,0.060
0.689,0.062
0.689,0.053
0.689,0.057
0.689,0.052
0.690,0.052
0.690,0.055
0.690,0.057
0.690,0.053
0.691,0.057
0.691,0.053
0.691,0.055
0.691,0.050
0.692,0.053
0.692,0.047
0.692,0.048
0.692,0.040
0.693,0.042
0.693,0.035
0.693,0.033
0.693,0.038
0.694,0.033
0.694,0.037
0.694,0.037
0.694,0.030
0.695,0.032
0.695,0.027
0.695,0.027
0.695,0.033
0.696,0.030
0.696,0.035
0.696,0.032
0.696,0.035
0.697,0.033
0.697,0.028
0.697,0.028
0.697,0.020
0.698,0.017
0.698,0.022
0.698,0.022
0.698,0.018
0.699,0.020
0.699,0.015
0.699,0.020
0.699,0.015
0.700,0.017
0.700,0.013
0.700,0.018
0.700,0.013
0.701,0.017
0.701,0.013
0.701,0.015
0.701,0.010
0.702,0.012
0.702,0.008
0.702,0.010
0.702,0.007
0.703,0.007
0.703,0.002
0.703,0.003
0.703,-0.003
0.704,0.000
0.704,-0.005
0.704,-0.005
0.704,-0.002
0.705,-0.005
0.705,-0.002
0.705,-0.005
0.705,-0.002
0.706,-0.005
0.706,-0.002
0.706,-0.003
0.706,0.002
0.707,0.002
0.707,-0.003
0.707,-0.003
0.707,-0.002
0.708,-0.002
0.708,-0.003
0.708,-0.003
0.708,0.000
0.709,-0.002
0.709,0.002
0.709,0.002
0.709,0.007
0.710,0.008
0.710,0.003
0.710,0.007
0.710,0.002
0.711,0.003
0.711,0.007
0.711,0.005
0.711,0.012
0.712,0.010
0.712,0.013
0.712,0.012
0.712,0.007
0.713,0.007
0.713,-0.007
0.713,-0.007
0.713,-0.027
0.714,-0.028
0.714,-0.045
0.714,-0.043
0.714,-0.048
0.715,-0.047
0.715,-0.042
0.715,-0.045
0.715,-0.050
0.716,-0.047
0.716,-0.037
0.716,-0.037
0.716,-0.028
0.717,-0.027
0.717,-0.005
0.717,-0.005
0.717,0.007
0.718,0.003
0.718,0.007
0.718,0.003
0.718,0.000
0.719,0.000
0.719,-0.003
0.719,-0.005
0.719,-0.002
0.720,-0.007
0.720,-0.003
0.720,-0.005
0.720,0.000
0.721,0.000
0.721,-0.003
0.721,-0.005
0.721,0.005
0.722,0.000
0.722,0.008
0.722,0.008
0.722,0.017
0.723,0.015
0.723,0.013
0.723,0.015
0.723,0.007
0.724,0.007
0.724,0.000
0.724,0.000
0.724,-0.007
0.725,-0.007
0.725,-0.002
0.725,-0.002
0.725,0.003
0.726,0.002
0.726,0.008
0.726,0.008
0.726,0.015
0.727,0.015
0.727,0.025
0.727,0.025
0.727,0.037
0.728,0.035
0.728,0.038
0.728,0.038
0.728,0.032
0.729,0.032
0.729,0.023
0.729,0.023
0.729,0.028
0.730,0.027
0.730,0.023
0.730,0.022
0.730,0.008
0.731,0.007
0.731,-0.005
0.731,-0.003
0.731,-0.012
0.732,-0.013
0.732,-0.003
0.732,-0.002
0.732,-0.012
0.733,-0.012
0.733,-0.027
0.733,-0.027
0.733,-0.040
0.734,-0.040
0.734,-0.047
0.734,-0.047
0.734,-0.040
0.735,-0.040
0.735,-0.028
0.735,-0.028
0.735,-0.037
0.736,-0.038
0.736,-0.043
0.736,-0.045
0.736,-0.042
0.737,-0.043
0.737,-0.037
0.737,-0.037
0.737,-0.042
0.738,-0.040
0.738,-0.037
0.738,-0.037
0.738,-0.032
0.739,-0.032
0.739,-0.023
0.739,-0.023
0.739,-0.018
0.740,-0.022
0.740,-0.015
0.740,-0.017
0.740,-0.015
0.741,-0.015
0.741,-0.010
0.741,-0.010
0.741,-0.008
0.742,-0.008
0.742,-0.003
0.742,-0.005
0.742,-0.003
0.743,-0.005
0.743,0.000
0.743,-0.002
0.743,-0.007
0.744,-0.003
0.744,0.000
0.744,-0.002
0.744,-0.003
0.745,0.000
0.745,-0.005
0.745,-0.005
0.745,-0.010
0.746,-0.007
0.746,-0.015
0.746,-0.012
0.746,-0.018
0.747,-0.015
0.747,-0.022
0.747,-0.023
0.747,-0.017
0.748,-0.017
0.748,-0.012
0.748,-0.012
0.748,-0.005
0.749,-0.005
0.749,-0.002
0.749,-0.003
0.749,0.002
0.750,0.002
0.750,-0.002
0.750,0.002
0.750,-0.005
0.750,0.100
0.751,-0.002
0.751,-0.008
0.751,-0.007
0.751,-0.003
0.752,-0.002
0.752,-0.007
0.752,-0.002
0.752,0.002
0.753,0.000
0.753,-0.003
0.753,-0.002
0.753,-0.005
0.754,-0.005
0.754,-0.008
0.754,-0.007
0.754,-0.010
0.755,-0.008
0.755,-0.013
0.755,-0.010
0.755,-0.017
0.756,-0.013
0.756,-0.017
0.756,-0.015
0.756,-0.008
0.757,-0.010
0.757,-0.005
0.757,-0.003
0.757,0.002
0.758,0.002
0.758,0.005
0.758,0.003
0.758,0.000
0.759,0.000
0.759,-0.003
0.759,-0.005
0.759,-0.002
0.760,-0.005
0.760,-0.010
0.760,-0.008
0.760,-0.013
0.761,-0.013
0.761,-0.010
0.761,-0.012
0.761,-0.015
0.762,-0.012
0.762,-0.015
0.762,-0.013
0.762,-0.005
0.763,-0.005
0.763,0.002
0.763,0.002
0.763,0.008
0.764,0.008
0.764,0.015
0.764,0.015
0.764,0.012
0.765,0.015
0.765,0.010
0.765,0.008
0.765,0.013
0.766,0.012
0.766,0.067
0.766,0.072
0.766,0.152
0.767,0.153
0.767,0.262
0.767,0.267
0.767,0.395
0.768,0.402
0.768,0.593
0.768,0.598
0.768,0.210
0.769,0.175
0.769,-0.695
0.769,-0.777
0.769,0.090
0.770,-0.142
0.770,0.515
0.770,0.408
0.770,-2.570
0.771,-2.407
0.771,-0.932
0.771,-0.852
0.771,-0.030
0.772,-0.210
0.772,0.205
0.772,0.217
0.772,0.333
0.773,0.332
0.773,0.300
0.773,0.298
0.773,0.272
0.774,0.270
0.774,0.213
0.774,0.215
0.774,0.188
0.775,0.187
0.775,0.162
0.775,0.162
0.775,0.130
0.776,0.128
0.776,0.085
0.776,0.082
0.776,0.032
0.777,0.032
0.777,0.022
0.777,0.027
0.777,0.035
0.778,0.033
0.778,0.037
0.778,0.037
0.778,0.047
0.779,0.043
0.779,0.045
0.779,0.043
0.779,0.030
0.780,0.033
0.780,0.018
0.780,0.018
0.780,0.010
0.781,0.010
0.781,0.013
0.781,0.012
0.781,0.007
0.782,0.008
0.782,0.005
0.782,0.005
0.782,0.017
0.783,0.015
0.783,0.025
0.783,0.023
0.783,0.030
0.784,0.030
0.784,0.037
0.784,0.035
0.784,0.032
0.785,0.033
0.785,0.028
0.785,0.033
0.785,0.025
0.786,0.028
0.786,0.022
0.786,0.022
0.786,0.013
0.787,0.012
0.787,0.018
0.787,0.017
0.787,0.028
0.788,0.027
0.788,0.040
0.788,0.040
0.788,0.052
0.789,0.053
0.789,0.072
0.789,0.072
0.789,0.098
0.790,0.100
0.790,0.143
0.790,0.145
0.790,0.225
0.791,0.230
0.791,0.348
0.791,0.343
0.791,-0.398
0.792,-0.407
0.792,-0.443
0.792,-0.403
0.792,-0.198
0.793,-0.193
0.793,-0.082
0.793,-0.075
0.793,0.065
0.794,0.068
0.794,0.160
0.794,0.163
0.794,0.230
0.795,0.232
0.795,0.282
0.795,0.282
0.795,0.050
0.796,0.035
0.796,-0.542
0.796,-0.558
0.796,-0.622
0.797,-0.575
0.797,-0.298
0.797,-0.287
0.797,-0.035
0.798,-0.028
0.798,0.105
0.798,0.108
0.798,0.155
0.799,0.160
0.799,0.150
0.799,0.150
0.799,0.130
0.800,0.128
0.800,0.102
0.800,0.100
0.800,0.067
0.801,0.103
0.801,0.068
0.801,0.067
0.801,0.008
0.802,0.010
0.802,0.002
0.802,0.002
0.802,0.007
0.803,0.005
0.803,0.008
0.803,0.008
0.803,0.003
0.804,0.005
0.804,0.010
0.804,0.010
0.804,0.018
0.805,0.018
0.805,0.023
0.805,0.022
0.805,0.027
0.806,0.028
0.806,0.023
0.806,0.027
0.806,0.043
0.807,0.042
0.807,0.060
0.807,0.060
0.807,0.070
0.808,0.070
0.808,0.058
0.808,0.058
0.808,0.043
0.809,0.042
0.809,0.022
0.809,0.020
0.809,-0.002
0.810,-0.002
0.810,-0.015
0.810,-0.013
0.810,-0.017
0.811,-0.017
0.811,-0.020
0.811,-0.018
0.811,-0.022
0.812,-0.022
0.812,-0.027
0.812,-0.028
0.812,-0.033
0.813,-0.035
0.813,-0.040
0.813,-0.043
0.814,-0.038
0.814,-0.042
0.814,-0.045
0.814,-0.042
0.815,-0.035
0.815,-0.035
0.815,-0.043
0.815,-0.042
0.816,-0.035
0.816,-0.037
0.816,-0.040
0.816,-0.038
0.817,-0.017
0.817,-0.017
0.817,0.005
0.817,0.007
0.818,0.022
0.818,0.022
0.818,0.033
0.818,0.035
0.819,0.040
0.819,0.040
0.819,0.043
0.819,0.042
0.820,0.045
0.820,0.042
0.820,0.047
0.820,0.043
0.821,0.053
0.821,0.055
0.821,0.062
0.821,0.062
0.822,0.043
0.822,0.043
0.822,0.028
0.822,0.028
0.823,0.013
0.823,0.013
0.823,0.005
0.823,0.002
0.824,0.008
0.824,0.008
0.824,0.017
0.824,0.017
0.825,0.025
0.825,0.027
0.825,0.042
0.825,0.042
0.826,0.045
0.826,0.045
0.826,0.040
0.826,0.042
0.827,0.035
0.827,0.033
0.827,0.020
0.827,0.020
0.828,-0.002
0.828,-0.002
0.828,-0.015
0.828,-0.017
0.829,-0.023
0.829,-0.022
0.829,-0.028
0.829,-0.027
0.830,-0.032
0.830,-0.032
0.830,-0.027
0.830,-0.027
0.831,-0.018
0.831,-0.018
0.831,-0.010
0.831,-0.010
0.832,-0.003
0.832,-0.003
0.832,-0.012
0.832,-0.013
0.833,-0.027
0.833,-0.028
0.833,-0.037
0.833,-0.037
0.834,-0.030
0.834,-0.033
0.834,-0.025
0.834,-0.025
0.835,-0.007
0.835,-0.007
0.835,0.005
0.835,0.003
0.836,0.008
0.836,0.008
0.836,0.005
0.836,0.002
0.837,0.005
0.837,0.000
0.837,0.007
0.837,0.005
0.838,0.010
0.838,0.010
0.838,0.003
0.838,0.003
0.839,-0.013
0.839,-0.013
0.839,-0.020
0.839,-0.020
0.840,-0.017
0.840,-0.017
0.840,-0.012
0.840,-0.010
0.841,-0.012
0.841,-0.013
0.841,-0.008
0.841,-0.013
0.842,-0.022
0.842,-0.022
0.842,-0.032
0.842,-0.028
0.843,-0.033
0.843,-0.033
0.843,-0.035
0.843,-0.033
0.844,-0.025
0.844,-0.025
0.844,-0.017
0.844,-0.018
0.845,-0.010
0.845,-0.010
0.845,-0.007
0.845,-0.007
0.846,-0.012
0.846,-0.010
0.846,-0.005
0.846,-0.005
0.847,-0.002
0.847,-0.005
0.847,0.000
0.847,0.000
0.848,0.005
0.848,0.002
0.848,0.007
0.848,0.007
0.849,0.012
0.849,0.010
0.849,0.017
0.849,0.015
0.850,0.022
0.850,0.020
0.850,0.023
0.850,0.022
0.851,0.028
0.851,0.023
0.851,0.000
0.851,-0.003
0.852,-0.028
0.852,-0.028
0.852,-0.040
0.852,-0.040
0.853,-0.047
0.853,-0.047
0.853,-0.050
0.853,-0.048
0.854,-0.040
0.854,-0.040
0.854,-0.037
0.854,-0.038
0.855,-0.042
0.855,-0.042
0.855,-0.035
0.855,-0.037
0.856,-0.028
0.856,-0.032
0.856,-0.025
0.856,-0.028
0.857,-0.023
0.857,-0.027
0.857,-0.022
0.857,-0.023
0.858,-0.020
0.858,-0.020
0.858,-0.017
0.858,-0.015
0.859,-0.018
0.859,-0.017
0.859,-0.012
0.859,-0.012
0.860,-0.017
0.860,-0.013
0.860,-0.010
0.860,-0.007
0.861,-0.012
0.861,-0.007
0.861,-0.010
0.861,-0.005
0.862,-0.010
0.862,-0.012
0.862,-0.007
0.862,-0.005
0.863,-0.008
0.863,-0.008
0.863,-0.005
0.863,-0.008
0.864,0.002
0.864,0.003
0.864,0.073
0.864,0.077
0.865,0.165
0.865,0.168
0.865,0.280
0.865,0.285
0.866,0.420
0.866,0.428
0.866,0.595
0.866,0.587
0.867,0.108
0.867,0.072
0.867,-0.790
0.867,-0.822
0.868,0.087
0.868,-0.202
0.868,0.663
0.868,0.490
0.869,-2.358
0.869,-2.100
0.869,-0.612
0.869,-0.532
0.870,0.218
0.870,0.043
0.870,0.335
0.870,0.343
0.871,0.382
0.871,0.355
0.871,0.268
0.871,0.265
0.872,0.193
0.872,0.190
0.872,0.105
0.872,0.103
0.873,0.073
0.873,0.072
0.873,0.088
0.873,0.090
0.874,0.110
0.874,0.110
0.874,0.120
0.874,0.113
0.875,0.100
0.875,0.098
0.875,0.063
0.875,0.062
0.875,0.012
0.876,0.010
0.876,-0.012
0.876,-0.013
0.876,-0.003
0.877,-0.003
0.877,0.025
0.877,0.027
0.877,0.047
0.878,0.050
0.878,0.045
0.878,0.045
0.878,0.030
0.879,0.028
0.879,-0.040
0.879,-0.043
0.879,-0.140
0.880,-0.147
0.880,-0.235
0.880,-0.237
0.880,-0.250
0.881,-0.242
0.881,-0.192
0.881,-0.188
0.881,-0.133
0.882,-0.130
0.882,-0.077
0.882,-0.073
0.882,-0.043
0.883,-0.043
0.883,-0.012
0.883,-0.010
0.883,0.002
0.884,0.003
0.884,-0.002
0.884,0.002
0.884,0.012
0.885,0.010
0.885,0.018
0.885,0.015
0.885,0.028
0.886,0.027
0.886,0.042
0.886,0.043
0.886,0.060
0.887,0.060
0.887,0.072
0.887,0.072
0.887,0.075
0.888,0.073
0.888,0.080
0.888,0.077
0.888,0.085
0.889,0.088
0.889,0.083
0.889,0.083
0.889,0.075
0.890,0.077
0.890,0.083
0.890,0.083
0.890,0.100
0.891,0.100
0.891,0.120
0.891,0.120
0.891,0.170
0.892,0.173
0.892,0.253
0.892,0.260
0.892,0.403
0.893,0.405
0.893,-0.302
0.893,-0.310
0.893,-0.370
0.894,-0.337
0.894,-0.113
0.894,-0.107
0.894,-0.007
0.895,0.000
0.895,0.135
0.895,0.138
0.895,0.225
0.896,0.228
0.896,0.280
0.896,0.282
0.896,0.317
0.897,0.318
0.897,0.122
0.897,0.102
0.897,-0.483
0.898,-0.505
0.898,-0.633
0.898,-0.612
0.898,-0.348
0.899,-0.338
0.899,-0.080
0.899,-0.073
0.899,0.070
0.900,0.073
0.900,0.130
0.900,0.130
0.900,0.142
0.901,0.138
0.901,0.122
0.901,0.122
0.901,0.092
0.902,0.090
0.902,0.057
0.902,0.088
0.902,0.050
0.903,0.045
0.903,-0.025
0.903,-0.025
0.903,-0.045
0.904,-0.043
0.904,-0.050
0.904,-0.047
0.904,-0.052
0.905,-0.050
0.905,-0.053
0.905,-0.055
0.905,-0.047
0.906,-0.047
0.906,-0.037
0.906,-0.038
0.906,-0.030
0.907,-0.030
0.907,-0.015
0.907,-0.017
0.907,-0.005
0.908,-0.005
0.908,0.008
0.908,0.008
0.908,0.028
0.909,0.028
0.909,0.040
0.909,0.042
0.909,0.037
0.910,0.038
0.910,0.030
0.910,0.032
0.910,0.020
0.911,0.023
0.911,0.027
0.911,0.025
0.911,0.028
0.912,0.025
0.912,0.032
0.912,0.030
0.912,0.033
0.913,0.032
0.913,0.023
0.913,0.023
0.913,0.012
0.914,0.012
0.914,0.000
0.914,-0.002
0.914,-0.008
0.915,-0.008
0.915,-0.015
0.915,-0.013
0.915,-0.022
0.916,-0.017
0.916,-0.023
0.916,-0.022
0.916,-0.025
0.917,-0.023
0.917,-0.020
0.917,-0.020
0.917,-0.023
0.918,-0.023
0.918,-0.020
0.918,-0.020
0.918,-0.007
0.919,-0.007
0.919,0.002
0.919,0.003
0.919,0.007
0.920,0.008
0.920,0.002
0.920,0.000
0.920,-0.010
0.921,-0.010
0.921,-0.017
0.921,-0.013
0.921,-0.018
0.922,-0.017
0.922,-0.023
0.922,-0.023
0.922,-0.013
0.923,-0.013
0.923,-0.005
0.923,-0.005
0.923,0.012
0.924,0.012
0.924,0.018
0.924,0.015
0.924,0.010
0.925,0.015
0.925,0.010
0.925,0.013
0.925,0.010
0.926,0.010
0.926,0.015
0.926,0.013
0.926,0.018
0.927,0.017
0.927,0.020
0.927,0.015
0.927,-0.002
0.928,-0.003
0.928,-0.023
0.928,-0.025
0.928,-0.047
0.929,-0.045
0.929,-0.065
0.929,-0.065
0.929,-0.078
0.930,-0.080
0.930,-0.077
0.930,-0.075
0.930,-0.058
0.931,-0.055
0.931,-0.025
0.931,-0.025
0.931,-0.003
0.932,-0.003
0.932,0.007
0.932,0.008
0.932,0.015
0.933,0.017
0.933,0.012
0.933,0.012
0.933,0.017
0.934,0.013
0.934,0.017
0.934,0.017
0.934,0.013
0.935,0.015
0.935,0.010
0.935,0.013
0.935,0.010
0.936,0.013
0.936,0.010
0.936,0.012
0.936,0.015
0.937,0.012
0.937,0.017
0.937,0.012
0.938,0.017
0.938,0.017
0.938,0.013
0.938,0.017
0.939,0.010
0.939,0.010
0.939,-0.008
0.939,-0.007
0.940,-0.017
0.940,-0.013
0.940,-0.022
0.940,-0.017
0.941,-0.022
0.941,-0.022
0.941,-0.017
0.941,-0.017
0.942,-0.005
0.942,-0.005
0.942,0.007
0.942,0.007
0.943,0.010
0.943,0.007
0.943,0.008
0.943,0.003
0.944,0.010
0.944,0.012
0.944,0.017
0.944,0.017
0.945,0.022
0.945,0.018
0.945,0.008
0.945,0.008
0.946,0.002
0.946,0.000
0.946,0.007
0.946,0.005
0.947,0.010
0.947,0.012
0.947,0.018
0.947,0.018
0.948,0.023
0.948,0.022
0.948,0.027
0.948,0.028
0.949,0.025
0.949,0.027
0.949,0.007
0.949,0.005
0.950,-0.012
0.950,-0.005
0.950,0.058
0.950,0.062
0.951,0.145
0.951,0.150
0.951,0.255
0.951,0.258
0.952,0.417
0.952,0.425
0.952,0.538
0.952,0.498
0.953,-0.145
0.953,-0.180
0.953,-0.857
0.953,-0.853
0.954,-0.118
0.954,-0.285
0.954,0.813
0.954,0.150
0.955,-2.497
0.955,-1.970
0.955,-0.395
0.955,-0.337
0.956,0.260
0.956,0.277
0.956,0.442
0.956,0.438
0.957,0.363
0.957,0.360
0.957,0.273
0.957,0.272
0.958,0.193
0.958,0.188
0.958,0.120
0.958,0.118
0.959,0.088
0.959,0.087
0.959,0.080
0.959,0.083
0.960,0.078
0.960,0.082
0.960,0.073
0.960,0.073
0.961,0.055
0.961,0.053
0.961,0.015
0.961,0.013
0.962,-0.037
0.962,-0.040
0.962,-0.073
0.962,-0.075
0.963,-0.083
0.963,-0.083
0.963,-0.073
0.963,-0.073
0.964,-0.057
0.964,-0.058
0.964,-0.047
0.964,-0.047
0.965,-0.038
0.965,-0.038
0.965,-0.025
0.965,-0.025
0.966,-0.020
0.966,-0.023
0.966,-0.018
0.966,-0.018
0.967,-0.013
0.967,-0.015
0.967,-0.008
0.967,-0.013
0.968,-0.007
0.968,-0.008
0.968,0.002
0.968,0.000
0.969,0.008
0.969,0.007
0.969,0.013
0.969,0.013
0.970,0.017
0.970,0.015
0.970,0.012
0.970,0.010
0.971,0.015
0.971,0.012
0.971,0.017
0.971,0.015
0.972,0.025
0.972,0.022
0.972,0.025
0.972,0.023
0.973,0.028
0.973,0.023
0.973,0.027
0.973,0.027
0.974,0.020
0.974,0.022
0.974,0.013
0.974,0.012
0.975,0.000
0.975,0.000
0.975,-0.010
0.975,-0.008
0.976,-0.017
0.976,-0.015
0.976,-0.018
0.976,-0.017
0.977,-0.020
0.977,-0.017
0.977,-0.022
0.977,-0.018
0.978,-0.022
0.978,-0.020
0.978,-0.025
0.978,-0.025
0.979,-0.018
0.979,-0.018
0.979,-0.003
0.979,-0.003
0.980,0.010
0.980,0.010
0.980,0.018
0.980,0.017
0.981,0.022
0.981,0.020
0.981,0.017
0.981,0.018
0.982,0.008
0.982,0.008
0.982,0.002
0.982,0.002
0.983,-0.007
0.983,-0.003
0.983,-0.007
0.983,-0.007
0.984,-0.012
0.984,-0.013
0.984,-0.008
0.984,-0.012
0.985,-0.005
0.985,-0.010
0.985,-0.003
0.985,-0.005
0.986,0.000
0.986,-0.003
0.986,0.000
0.986,0.002
0.987,-0.003
0.987,-0.002
0.987,-0.008
0.987,-0.007
0.988,-0.017
0.988,-0.017
0.988,-0.027
0.988,-0.028
0.989,-0.038
0.989,-0.037
0.989,-0.043
0.989,-0.042
0.990,-0.038
0.990,-0.038
0.990,-0.043
0.990,-0.042
0.991,-0.027
0.991,-0.027
0.991,-0.013
0.991,-0.017
0.992,-0.008
0.992,-0.010
0.992,0.000
0.992,-0.003
0.993,0.007
0.993,0.007
0.993,0.013
0.993,0.012
0.994,0.007
0.994,0.007
0.994,0.012
0.994,0.013
0.995,0.032
0.995,0.032
0.995,0.058
0.995,0.058
0.996,0.085
0.996,0.087
0.996,0.097
0.996,0.095
0.997,0.100
0.997,0.100
0.997,0.108
0.997,0.108
0.998,0.125
0.998,0.128
0.998,0.195
0.998,0.198
0.999,0.323
0.999,0.405
0.999,-0.095
0.999,-0.127
1.000,-0.357
1.000,-0.387
1.000,-0.248
1.000,-0.235
1.000,-0.087
1.001,0.100
1.001,-0.080
1.001,0.067
1.002,0.073
1.002,0.185
1.002,0.188
1.002,0.265
1.002,0.268
1.003,0.318
1.003,0.330
1.003,0.290
1.004,0.283
1.004,-0.205
1.004,-0.240
1.004,-0.655
1.004,-0.660
1.005,-0.523
1.005,-0.512
1.005,-0.237
1.006,-0.227
1.006,-0.030
1.006,-0.025
1.006,0.068
1.006,0.072
1.007,0.108
1.007,0.108
1.007,0.117
1.008,0.115
1.008,0.127
1.008,0.130
1.008,0.125
1.008,0.120
1.009,0.167
1.009,0.163
1.009,0.085
1.010,0.090
1.010,0.083
1.010,0.083
1.010,0.082
1.010,0.082
1.011,0.070
1.011,0.068
1.011,0.048
1.012,0.048
1.012,0.025
1.012,0.023
1.012,0.013
1.012,0.017
1.013,0.025
1.013,0.025
1.013,0.030
1.014,0.028
1.014,0.032
1.014,0.030
1.014,-0.003
1.014,-0.007
1.015,-0.085
1.015,-0.090
1.015,-0.183
1.016,-0.187
1.016,-0.225
1.016,-0.225
1.016,-0.185
1.016,-0.182
1.017,-0.105
1.017,-0.102
1.017,-0.020
1.018,-0.018
1.018,0.043
1.018,0.045
1.018,0.077
1.018,0.078
1.019,0.088
1.019,0.090
1.019,0.085
1.020,0.087
1.020,0.082
1.020,0.082
1.020,0.080
1.020,0.080
1.021,0.083
1.021,0.083
1.021,0.080
1.022,0.082
1.022,0.077
1.022,0.077
1.022,0.067
1.022,0.068
1.023,0.057
1.023,0.058
1.023,0.045
1.024,0.047
1.024,0.038
1.024,0.040
1.024,0.030
1.024,0.030
1.025,0.022
1.025,0.023
1.025,0.013
1.026,0.017
1.026,0.008
1.026,0.012
1.026,0.003
1.026,0.005
1.027,-0.002
1.027,-0.002
1.027,-0.008
1.028,-0.008
1.028,-0.027
1.028,-0.027
1.028,-0.032
1.028,-0.033
1.029,-0.027
1.029,-0.028
1.029,-0.023
1.030,-0.025
1.030,-0.023
1.030,-0.023
1.030,-0.020
1.030,-0.020
1.031,-0.023
1.031,-0.022
1.031,-0.017
1.032,-0.017
1.032,-0.012
1.032,-0.013
1.032,-0.008
1.032,-0.008
1.033,-0.005
1.033,-0.007
1.033,-0.002
1.034,-0.003
1.034,-0.007
1.034,-0.007
1.034,-0.013
1.034,-0.015
1.035,-0.012
1.035,-0.017
1.035,-0.012
1.036,-0.015
1.036,-0.008
1.036,-0.013
1.036,-0.010
1.036,-0.008
1.037,-0.013
1.037,-0.015
1.037,-0.008
1.038,-0.012
1.038,-0.007
1.038,-0.008
1.038,-0.002
1.038,0.000
1.039,-0.005
1.039,-0.003
1.039,-0.008
1.040,-0.005
1.040,-0.017
1.040,-0.012
1.040,-0.020
1.040,-0.018
1.041,-0.023
1.041,-0.023
1.041,-0.028
1.042,-0.025
1.042,-0.030
1.042,-0.028
1.042,-0.023
1.042,-0.027
1.043,-0.015
1.043,-0.015
1.043,-0.010
1.044,-0.012
1.044,-0.015
1.044,-0.015
1.044,-0.012
1.044,-0.013
1.045,-0.007
1.045,-0.007
1.045,-0.013
1.046,-0.013
1.046,-0.025
1.046,-0.025
1.046,-0.022
1.046,-0.023
1.047,-0.015
1.047,-0.017
1.047,-0.007
1.048,-0.007
1.048,0.002
1.048,0.002
1.048,0.012
1.048,0.013
1.049,0.028
1.049,0.030
1.049,0.045
1.050,0.045
1.050,0.060
1.050,0.057
1.050,0.063
1.050,0.060
1.051,0.053
1.051,0.055
1.051,0.050
1.052,0.048
1.052,0.058
1.052,0.058
1.052,0.055
1.052,0.058
1.053,0.045
1.053,0.045
1.053,0.028
1.054,0.027
1.054,0.023
1.054,0.023
1.054,0.017
1.054,0.015
1.055,0.005
1.055,0.003
1.055,0.000
1.056,0.000
1.056,-0.022
1.056,-0.023
1.056,-0.065
1.056,-0.077
1.057,-0.065
1.057,-0.063
1.057,0.033
1.058,0.037
1.058,0.155
1.058,0.160
1.058,0.295
1.058,0.302
1.059,0.458
1.059,0.467
1.059,0.612
1.060,0.597
1.060,0.030
1.060,-0.008
1.060,-0.787
1.060,-0.793
1.061,-0.098
1.061,-0.397
1.061,0.637
1.062,0.322
1.062,-2.713
1.062,-2.152
1.062,-0.407
1.062,-0.338
1.063,0.215
1.063,0.217
1.063,0.363
1.063,0.378
1.064,0.345
1.064,0.342
1.064,0.263
1.065,0.260
1.065,0.190
1.065,0.185
1.065,0.120
1.065,0.117
1.066,0.087
1.066,0.087
1.066,0.075
1.067,0.077
1.067,0.065
1.067,0.065
1.067,0.055
1.067,0.057
1.068,0.050
1.068,0.050
1.068,0.045
1.069,0.045
1.069,0.037
1.069,0.037
1.069,0.020
1.069,0.020
1.070,0.008
1.070,0.007
1.070,-0.012
1.071,-0.013
1.071,-0.022
1.071,-0.022
1.071,-0.035
1.071,-0.037
1.072,-0.040
1.072,-0.040
1.072,-0.035
1.073,-0.038
1.073,-0.043
1.073,-0.043
1.073,-0.050
1.073,-0.052
1.074,-0.048
1.074,-0.052
1.074,-0.047
1.075,-0.052
1.075,-0.037
1.075,-0.037
1.075,-0.025
1.075,-0.027
1.076,-0.020
1.076,-0.018
1.076,-0.013
1.077,-0.013
1.077,-0.015
1.077,-0.015
1.077,-0.020
1.077,-0.017
1.078,-0.013
1.078,-0.013
1.078,-0.018
1.079,-0.018
1.079,-0.013
1.079,-0.017
1.079,-0.012
1.079,-0.012
1.080,-0.010
1.080,-0.010
1.080,-0.007
1.081,-0.008
1.081,-0.002
1.081,-0.003
1.081,0.002
1.081,-0.002
1.082,0.007
1.082,0.007
1.082,0.010
1.083,0.010
1.083,0.018
1.083,0.017
1.083,0.013
1.083,0.013
1.084,0.008
1.084,0.008
1.084,0.005
1.085,0.007
1.085,0.003
1.085,0.008
1.085,0.003
1.085,0.008
1.086,0.003
1.086,0.003
1.086,0.007
1.087,0.005
1.087,0.010
1.087,0.012
1.087,0.020
1.087,0.018
1.088,0.028
1.088,0.028
1.088,0.035
1.089,0.033
1.089,0.038
1.089,0.037
1.089,0.042
1.089,0.042
1.090,0.037
1.090,0.037
1.090,0.028
1.091,0.027
1.091,0.020
1.091,0.022
1.091,0.017
1.091,0.020
1.092,0.017
1.092,0.022
1.092,0.013
1.093,0.015
1.093,0.007
1.093,0.010
1.093,0.003
1.093,0.005
1.094,-0.002
1.094,-0.002
1.094,-0.008
1.095,-0.008
1.095,-0.022
1.095,-0.022
1.095,-0.033
1.095,-0.032
1.096,-0.037
1.096,-0.033
1.096,-0.027
1.097,-0.027
1.097,-0.015
1.097,-0.015
1.097,-0.010
1.097,-0.010
1.098,0.002
1.098,0.002
1.098,0.007
1.099,0.007
1.099,0.002
1.099,0.002
1.099,-0.005
1.099,-0.007
1.100,-0.010
1.100,-0.010
1.100,0.000
1.101,0.000
1.101,0.007
1.101,0.007
1.101,0.003
1.101,0.008
1.102,0.025
1.102,0.027
1.102,0.068
1.103,0.070
1.103,0.113
1.103,0.117
1.103,0.183
1.103,0.187
1.104,0.295
1.104,0.393
1.104,0.002
1.105,-0.048
1.105,-0.355
1.105,-0.378
1.105,-0.273
1.105,-0.263
1.106,-0.095
1.106,-0.092
1.106,0.052
1.107,0.058
1.107,0.178
1.107,0.182
1.107,0.270
1.107,0.273
1.108,0.318
1.108,0.338
1.108,0.318
1.109,0.313
1.109,-0.077
1.109,-0.108
1.109,-0.590
1.109,-0.602
1.110,-0.498
1.110,-0.487
1.110,-0.200
1.111,-0.188
1.111,0.017
1.111,0.023
1.111,0.122
1.111,0.122
1.112,0.145
1.112,0.145
1.112,0.132
1.113,0.132
1.113,0.110
1.113,0.110
1.113,0.083
1.113,0.070
1.114,0.103
1.114,0.107
1.114,0.030
1.115,0.025
1.115,0.017
1.115,0.017
1.115,0.023
1.115,0.023
1.116,0.027
1.116,0.025
1.116,0.022
1.117,0.023
1.117,0.013
1.117,0.017
1.117,0.012
1.117,0.012
1.118,0.005
1.118,0.007
1.118,-0.002
1.119,0.000
1.119,-0.003
1.119,-0.003
1.119,0.000
1.119,-0.005
1.120,0.000
1.120,-0.002
1.120,-0.007
1.121,-0.005
1.121,-0.012
1.121,-0.013
1.121,-0.020
1.121,-0.018
1.122,-0.022
1.122,-0.020
1.122,-0.012
1.123,-0.013
1.123,-0.010
1.123,-0.012
1.123,-0.015
1.123,-0.015
1.124,-0.018
1.124,-0.015
1.124,-0.018
1.125,-0.020
1.125,-0.017
1.125,-0.022
1.125,-0.017
1.125,-0.018
1.126,-0.008
1.126,-0.010
1.126,-0.005
1.127,-0.007
1.127,0.003
1.127,0.002
1.127,0.013
1.127,0.010
1.128,0.027
1.128,0.028
1.128,0.040
1.129,0.038
1.129,0.033
1.129,0.032
1.129,0.022
1.129,0.023
1.130,0.015
1.130,0.015
1.130,0.010
1.131,0.008
1.131,0.013
1.131,0.012
1.131,0.007
1.131,0.008
1.132,0.000
1.132,0.002
1.132,-0.007
1.133,-0.005
1.133,-0.010
1.133,-0.008
1.133,-0.015
1.133,-0.012
1.134,-0.017
1.134,-0.017
1.134,-0.012
1.135,-0.012
1.135,-0.007
1.135,-0.010
1.135,-0.007
1.135,-0.007
1.136,-0.010
1.136,-0.010
1.136,-0.013
1.137,-0.010
1.137,-0.017
1.137,-0.017
1.137,-0.025
1.137,-0.027
1.138,-0.023
1.138,-0.025
1.138,-0.020
1.139,-0.018
1.139,-0.022
1.139,-0.020
1.139,-0.013
1.139,-0.017
1.140,-0.013
1.140,-0.015
1.140,-0.013
1.141,-0.012
1.141,-0.017
1.141,-0.013
1.141,-0.017
1.141,-0.013
1.142,-0.008
1.142,-0.008
1.142,0.002
1.143,0.000
1.143,0.008
1.143,0.007
1.143,0.008
1.143,0.010
1.144,0.012
1.144,0.008
1.144,0.012
1.145,0.013
1.145,0.007
1.145,0.008
1.145,0.010
1.145,0.008
1.146,-0.002
1.146,0.000
1.146,-0.010
1.147,-0.008
1.147,-0.018
1.147,-0.018
1.147,-0.032
1.147,-0.033
1.148,-0.048
1.148,-0.050
1.148,-0.043
1.149,-0.045
1.149,-0.037
1.149,-0.037
1.149,-0.018
1.149,-0.018
1.150,0.008
1.150,0.010
1.150,0.052
1.151,0.053
1.151,0.088
1.151,0.090
1.151,0.118
1.151,0.120
1.152,0.095
1.152,0.093
1.152,0.067
1.153,0.065
1.153,0.027
1.153,0.013
1.153,0.038
1.153,0.042
1.154,0.180
1.154,0.188
1.154,0.438
1.155,0.462
1.155,0.192
1.155,0.158
1.155,-0.682
1.155,-0.802
1.156,-0.098
1.156,-0.405
1.156,0.837
1.157,0.792
1.157,-2.447
1.157,-2.430
1.157,-1.000
1.157,-0.913
1.158,0.155
1.158,0.165
1.158,0.480
1.159,0.497
1.159,0.470
1.159,0.467
1.159,0.377
1.159,0.375
1.160,0.295
1.160,0.290
1.160,0.178
1.161,0.175
1.161,0.123
1.161,0.122
1.161,0.102
1.161,0.100
1.162,0.087
1.162,0.085
1.162,0.045
1.163,0.042
1.163,0.007
1.163,0.003
1.163,-0.013
1.163,-0.012
1.164,-0.015
1.164,-0.013
1.164,-0.018
1.165,-0.013
1.165,-0.005
1.165,-0.007
1.165,0.000
1.165,-0.003
1.166,-0.008
1.166,-0.008
1.166,0.002
1.167,0.002
1.167,0.010
1.167,0.008
1.167,0.015
1.167,0.013
1.168,0.022
1.168,0.020
1.168,0.027
1.169,0.025
1.169,0.020
1.169,0.018
1.169,0.012
1.169,0.013
1.170,0.007
1.170,0.008
1.170,0.005
1.171,0.008
1.171,-0.002
1.171,-0.002
1.171,-0.022
1.171,-0.022
1.172,-0.047
1.172,-0.047
1.172,-0.062
1.173,-0.062
1.173,-0.068
1.173,-0.068
1.173,-0.077
1.173,-0.075
1.174,-0.067
1.174,-0.065
1.174,-0.055
1.175,-0.053
1.175,-0.018
1.175,-0.017
1.175,0.008
1.175,0.008
1.176,0.022
1.176,0.022
1.176,0.028
1.177,0.027
1.177,0.022
1.177,0.023
1.177,0.017
1.177,0.020
1.178,0.012
1.178,0.010
1.178,0.003
1.179,0.000
1.179,0.003
1.179,0.005
1.179,0.012
1.179,0.010
1.180,0.018
1.180,0.017
1.180,0.022
1.181,0.020
1.181,0.023
1.181,0.022
1.181,0.013
1.181,0.015
1.182,0.003
1.182,0.005
1.182,-0.005
1.183,-0.007
1.183,-0.003
1.183,-0.005
1.183,0.002
1.183,-0.002
1.184,0.007
1.184,0.007
1.184,0.015
1.185,0.013
1.185,0.017
1.185,0.015
1.185,0.022
1.185,0.020
1.186,0.013
1.186,0.017
1.186,0.008
1.187,0.008
1.187,0.013
1.187,0.012
1.187,0.017
1.188,0.018
1.188,0.013
1.188,0.013
1.188,0.005
1.188,0.003
1.189,0.008
1.189,0.008
1.189,0.002
1.190,0.002
1.190,-0.007
1.190,-0.007
1.190,-0.020
1.190,-0.018
1.191,-0.030
1.191,-0.028
1.191,-0.022
1.192,-0.022
1.192,-0.005
1.192,-0.005
1.192,0.005
1.192,0.003
1.193,0.012
1.193,0.012
1.193,0.015
1.194,0.013
1.194,0.010
1.194,0.012
1.194,-0.002
1.194,-0.002
1.195,-0.013
1.195,-0.013
1.195,-0.018
1.196,-0.018
1.196,-0.010
1.196,-0.010
1.196,-0.005
1.196,-0.003
1.197,0.008
1.197,0.005
1.197,0.015
1.198,0.010
1.198,0.013
1.198,0.013
1.198,0.008
1.198,0.008
1.199,0.013
1.199,0.008
1.199,0.002
1.200,0.000
1.200,0.005
1.200,-0.002
1.200,0.003
1.200,0.002
1.201,-0.003
1.201,0.003
1.201,-0.018
1.202,-0.020
1.202,-0.035
1.202,-0.035
1.202,-0.043
1.202,-0.042
1.203,-0.037
1.203,-0.040
1.203,-0.035
1.204,-0.038
1.204,-0.030
1.204,-0.032
1.204,-0.023
1.204,-0.022
1.205,-0.015
1.205,-0.013
1.205,-0.007
1.206,-0.008
1.206,0.002
1.206,0.002
1.206,0.013
1.206,0.010
1.207,0.017
1.207,0.012
1.207,0.022
1.208,0.022
1.208,0.030
1.208,0.030
1.208,0.038
1.208,0.035
1.209,0.050
1.209,0.052
1.209,0.065
1.210,0.065
1.210,0.077
1.210,0.077
1.210,0.088
1.210,0.088
1.211,0.105
1.211,0.105
1.211,0.123
1.212,0.123
1.212,0.175
1.212,0.178
1.212,0.263
1.212,0.267
1.213,0.395
1.213,0.405
1.213,-0.348
1.214,-0.355
1.214,-0.382
1.214,-0.355
1.214,-0.148
1.214,-0.142
1.215,-0.040
1.215,-0.035
1.215,0.105
1.216,0.110
1.216,0.203
1.216,0.207
1.216,0.268
1.216,0.270
1.217,0.312
1.217,0.312
1.217,0.115
1.218,0.097
1.218,-0.482
1.218,-0.502
1.218,-0.630
1.218,-0.607
1.219,-0.350
1.219,-0.338
1.219,-0.085
1.220,-0.077
1.220,0.070
1.220,0.075
1.220,0.130
1.220,0.132
1.221,0.140
1.221,0.133
1.221,0.117
1.222,0.117
1.222,0.092
1.222,0.092
1.222,0.062
1.222,0.067
1.223,0.100
1.223,0.062
1.223,0.012
1.224,0.017
1.224,0.012
1.224,0.017
1.224,0.022
1.224,0.025
1.225,0.020
1.225,0.022
1.225,0.015
1.226,0.017
1.226,0.012
1.226,0.015
1.226,0.008
1.226,0.008
1.227,0.012
1.227,0.008
1.227,0.012
1.228,0.012
1.228,0.018
1.228,0.015
1.228,0.022
1.228,0.017
1.229,0.020
1.229,0.017
1.229,0.013
1.230,0.017
1.230,0.008
1.230,0.008
1.230,0.000
1.230,0.000
1.231,-0.017
1.231,-0.015
1.231,-0.027
1.232,-0.027
1.232,-0.040
1.232,-0.042
1.232,-0.047
1.232,-0.045
1.233,-0.050
1.233,-0.050
1.233,-0.057
1.234,-0.058
1.234,-0.063
1.234,-0.063
1.234,-0.068
1.234,-0.068
1.235,-0.070
1.235,-0.070
1.235,-0.057
1.236,-0.057
1.236,-0.040
1.236,-0.040
1.236,0.042
1.236,0.045
1.237,0.133
1.237,0.137
1.237,0.255
1.238,0.262
1.238,0.417
1.238,0.425
1.238,0.590
1.238,0.578
1.239,0.057
1.239,0.018
1.239,-0.802
1.240,-0.818
1.240,-0.010
1.240,-0.307
1.240,0.707
1.240,0.443
1.241,-2.515
1.241,-1.995
1.241,-0.547
1.242,-0.477
1.242,0.222
1.242,0.240
1.242,0.343
1.242,0.347
1.243,0.382
1.243,0.367
1.243,0.293
1.244,0.290
1.244,0.225
1.244,0.222
1.244,0.133
1.244,0.133
1.245,0.093
1.245,0.093
1.245,0.082
1.246,0.082
1.246,0.072
1.246,0.072
1.246,0.060
1.246,0.058
1.247,0.047
1.247,0.047
1.247,0.042
1.248,0.048
1.248,0.045
1.248,0.047
1.248,0.035
1.248,0.033
1.249,0.018
1.249,0.017
1.249,-0.015
1.250,-0.017
1.250,-0.058
1.250,-0.058
1.250,-0.067
1.250,-0.063
1.251,-0.047
1.251,0.100
1.251,-0.047
1.252,-0.030
1.252,-0.030
1.252,-0.022
1.252,-0.022
1.252,-0.030
1.253,-0.028
1.253,-0.033
1.253,-0.032
1.254,-0.035
1.254,-0.037
1.254,-0.033
1.254,-0.033
1.254,-0.037
1.255,-0.035
1.255,-0.030
1.255,-0.032
1.256,-0.025
1.256,-0.027
1.256,-0.015
1.256,-0.015
1.256,-0.005
1.257,-0.008
1.257,-0.003
1.257,-0.005
1.258,0.000
1.258,-0.002
1.258,0.005
1.258,0.005
1.258,0.010
1.259,0.008
1.259,0.017
1.259,0.015
1.260,0.020
1.260,0.015
1.260,0.012
1.260,0.013
1.260,0.010
1.261,0.010
1.261,0.015
1.261,0.017
1.262,0.012
1.262,0.017
1.262,0.022
1.262,0.020
1.262,0.023
1.263,0.022
1.263,0.025
1.263,0.027
1.264,0.023
1.264,0.027
1.264,0.030
1.264,0.028
1.264,0.043
1.265,0.045
1.265,0.067
1.265,0.068
1.266,0.078
1.266,0.080
1.266,0.072
1.266,0.070
1.266,0.003
1.267,0.002
1.267,-0.093
1.267,-0.098
1.268,-0.195
1.268,-0.203
1.268,-0.190
1.268,-0.187
1.268,-0.135
1.269,-0.132
1.269,-0.080
1.269,-0.078
1.270,-0.030
1.270,-0.027
1.270,0.005
1.270,0.007
1.270,0.017
1.271,0.018
1.271,0.015
1.271,0.018
1.272,0.005
1.272,0.003
1.272,-0.008
1.272,-0.008
1.272,-0.013
1.273,-0.010
1.273,-0.015
1.273,-0.017
1.274,-0.010
1.274,-0.010
1.274,-0.005
1.274,-0.005
1.274,0.010
1.275,0.010
1.275,0.028
1.275,0.028
1.276,0.033
1.276,0.030
1.276,0.025
1.276,0.027
1.276,0.017
1.277,0.017
1.277,0.007
1.277,0.005
1.278,-0.007
1.278,-0.008
1.278,-0.027
1.278,-0.027
1.278,-0.037
1.279,-0.037
1.279,-0.045
1.279,-0.043
1.280,-0.038
1.280,-0.038
1.280,-0.030
1.280,-0.030
1.280,-0.013
1.281,-0.012
1.281,0.003
1.281,0.005
1.282,0.020
1.282,0.017
1.282,0.028
1.282,0.027
1.282,0.032
1.283,0.032
1.283,0.040
1.283,0.040
1.284,0.043
1.284,0.038
1.284,0.032
1.284,0.032
1.284,0.020
1.285,0.020
1.285,0.015
1.285,0.017
1.286,0.012
1.286,0.015
1.286,0.007
1.286,0.007
1.286,-0.002
1.287,-0.002
1.287,-0.005
1.287,-0.005
1.288,0.003
1.288,0.002
1.288,0.018
1.288,0.020
1.288,0.030
1.289,0.032
1.289,0.037
1.289,0.035
1.290,0.038
1.290,0.035
1.290,0.028
1.290,0.030
1.290,0.025
1.291,0.025
1.291,0.018
1.291,0.020
1.292,0.010
1.292,0.012
1.292,0.005
1.292,0.007
1.292,0.002
1.293,0.000
1.293,0.005
1.293,0.000
1.294,0.005
1.294,0.002
1.294,0.005
1.294,0.005
1.294,0.010
1.295,0.010
1.295,0.018
1.295,0.017
1.296,0.023
1.296,0.023
1.296,0.028
1.296,0.027
1.296,0.032
1.297,0.033
1.297,0.028
1.297,0.028
1.298,0.033
1.298,0.033
1.298,0.030
1.298,0.032
1.298,0.022
1.299,0.022
1.299,0.003
1.299,0.003
1.300,-0.015
1.300,-0.018
1.300,-0.030
1.300,-0.033
1.300,-0.030
1.301,-0.030
1.301,-0.027
1.301,-0.025
1.302,-0.032
1.302,-0.028
1.302,-0.040
1.302,-0.035
1.302,-0.045
1.303,-0.047
1.303,-0.040
1.303,-0.038
1.304,-0.025
1.304,-0.025
1.304,-0.008
1.304,-0.008
1.304,-0.003
1.305,-0.005
1.305,0.000
1.305,0.000
1.306,-0.003
1.306,-0.002
1.306,-0.007
1.306,-0.007
1.306,-0.015
1.307,-0.013
1.307,-0.027
1.307,-0.027
1.308,-0.030
1.308,-0.028
1.308,-0.033
1.308,-0.033
1.308,-0.040
1.309,-0.038
1.309,-0.032
1.309,-0.032
1.310,-0.025
1.310,-0.027
1.310,-0.020
1.310,-0.020
1.310,-0.013
1.311,-0.013
1.311,-0.005
1.311,-0.005
1.312,0.000
1.312,-0.003
1.312,-0.010
1.312,-0.012
1.312,-0.030
1.313,-0.032
1.313,-0.047
1.313,-0.047
1.313,-0.060
1.314,-0.060
1.314,-0.067
1.314,-0.068
1.315,-0.063
1.315,-0.067
1.315,-0.055
1.315,-0.055
1.315,-0.040
1.316,-0.042
1.316,-0.020
1.316,-0.018
1.317,0.005
1.317,0.002
1.317,0.023
1.317,0.025
1.317,0.050
1.318,0.053
1.318,0.075
1.318,0.077
1.319,0.108
1.319,0.112
1.319,0.157
1.319,0.162
1.319,0.247
1.320,0.252
1.320,0.398
1.320,0.433
1.321,-0.242
1.321,-0.258
1.321,-0.390
1.321,-0.388
1.321,-0.168
1.322,-0.160
1.322,-0.043
1.322,-0.037
1.323,0.117
1.323,0.122
1.323,0.223
1.323,0.228
1.323,0.298
1.324,0.302
1.324,0.350
1.324,0.357
1.325,0.243
1.325,0.225
1.325,-0.355
1.325,-0.377
1.325,-0.600
1.326,-0.592
1.326,-0.373
1.326,-0.360
1.327,-0.093
1.327,-0.085
1.327,0.078
1.327,0.080
1.327,0.153
1.328,0.155
1.328,0.172
1.328,0.170
1.329,0.155
1.329,0.155
1.329,0.138
1.329,0.137
1.329,0.105
1.330,0.105
1.330,0.142
1.330,0.123
1.331,0.047
1.331,0.050
1.331,0.040
1.331,0.038
1.331,0.042
1.332,0.042
1.332,0.033
1.332,0.032
1.333,0.018
1.333,0.018
1.333,0.005
1.333,0.005
1.333,-0.003
1.334,-0.007
1.334,-0.002
1.334,-0.002
1.335,-0.005
1.335,-0.007
1.335,0.000
1.335,-0.003
1.335,0.027
1.336,0.030
1.336,0.113
1.336,0.117
1.337,0.198
1.337,0.202
1.337,0.308
1.337,0.315
1.337,0.473
1.338,0.535
1.338,0.377
1.338,0.358
1.339,-0.463
1.339,-0.498
1.339,-0.832
1.339,-0.550
1.339,0.535
1.340,0.700
1.340,-1.982
1.340,-2.585
1.341,-1.567
1.341,-1.492
1.341,0.037
1.341,0.060
1.341,0.358
1.342,0.367
1.342,0.412
1.342,0.398
1.343,0.307
1.343,0.302
1.343,0.227
1.343,0.223
1.343,0.170
1.344,0.168
1.344,0.128
1.344,0.127
1.345,0.103
1.345,0.103
1.345,0.085
1.345,0.087
1.345,0.073
1.346,0.075
1.346,0.063
1.346,0.065
1.347,0.060
1.347,0.058
1.347,0.063
1.347,0.068
1.347,0.062
1.348,0.063
1.348,0.048
1.348,0.047
1.349,0.023
1.349,0.022
1.349,-0.015
1.349,-0.017
1.349,-0.038
1.350,-0.038
1.350,-0.043
1.350,-0.040
1.351,-0.035
1.351,-0.040
1.351,-0.037
1.351,-0.042
1.351,-0.037
1.352,-0.040
1.352,-0.027
1.352,-0.027
1.353,-0.012
1.353,-0.013
1.353,-0.005
1.353,-0.005
1.353,-0.002
1.354,-0.003
1.354,0.002
1.354,-0.002
1.355,0.002
1.355,0.002
1.355,-0.002
1.355,-0.003
1.355,0.002
1.356,0.002
1.356,0.005
1.356,0.003
1.357,0.007
1.357,0.005
1.357,0.008
1.357,0.008
1.357,0.003
1.358,0.003
1.358,0.000
1.358,0.000
1.359,-0.005
1.359,-0.003
1.359,-0.008
1.359,-0.007
1.359,-0.012
1.360,-0.010
1.360,-0.017
1.360,-0.017
1.361,-0.012
1.361,-0.015
1.361,-0.022
1.361,-0.018
1.361,-0.025
1.362,-0.023
1.362,-0.028
1.362,-0.025
1.363,-0.032
1.363,-0.030
1.363,-0.027
1.363,-0.028
1.363,-0.022
1.364,-0.025
1.364,-0.022
1.364,-0.023
1.365,-0.017
1.365,-0.018
1.365,-0.010
1.365,-0.012
1.365,-0.005
1.366,-0.005
1.366,-0.002
1.366,0.002
1.367,-0.002
1.367,0.000
1.367,-0.005
1.367,-0.007
1.367,0.000
1.368,0.002
1.368,0.007
1.368,0.007
1.369,0.003
1.369,0.003
1.369,0.008
1.369,0.007
1.369,0.013
1.370,0.010
1.370,0.013
1.370,0.017
1.371,0.010
1.371,0.010
1.371,0.008
1.371,0.010
1.371,0.007
1.372,0.007
1.372,0.003
1.372,0.005
1.373,-0.002
1.373,0.002
1.373,-0.005
1.373,-0.005
1.373,-0.012
1.374,-0.008
1.374,-0.013
1.374,-0.010
1.375,-0.002
1.375,0.000
1.375,0.013
1.375,0.013
1.375,0.023
1.376,0.022
1.376,0.017
1.376,0.018
1.377,0.022
1.377,0.023
1.377,0.018
1.377,0.018
1.377,0.012
1.378,0.013
1.378,0.010
1.378,0.012
1.379,0.018
1.379,0.020
1.379,0.027
1.379,0.027
1.379,0.035
1.380,0.035
1.380,0.025
1.380,0.025
1.381,0.028
1.381,0.030
1.381,0.040
1.381,0.040
1.381,0.048
1.382,0.050
1.382,0.057
1.382,0.055
1.383,0.040
1.383,0.038
1.383,-0.002
1.383,-0.003
1.383,-0.040
1.384,-0.040
1.384,-0.050
1.384,-0.050
1.385,-0.045
1.385,-0.047
1.385,-0.053
1.385,-0.048
1.385,-0.053
1.386,-0.048
1.386,-0.058
1.386,-0.060
1.387,-0.067
1.387,-0.067
1.387,-0.060
1.387,-0.060
1.387,-0.042
1.388,-0.042
1.388,-0.027
1.388,-0.025
1.389,-0.015
1.389,-0.013
1.389,-0.007
1.389,-0.007
1.389,0.002
1.390,0.002
1.390,0.008
1.390,0.008
1.391,0.015
1.391,0.013
1.391,0.017
1.391,0.013
1.391,0.005
1.392,0.003
1.392,-0.010
1.392,-0.010
1.393,-0.023
1.393,-0.025
1.393,-0.040
1.393,-0.042
1.393,-0.047
1.394,-0.045
1.394,-0.022
1.394,-0.020
1.395,0.012
1.395,0.013
1.395,0.042
1.395,0.042
1.395,0.067
1.396,0.068
1.396,0.033
1.396,0.030
1.397,-0.035
1.397,-0.040
1.397,-0.138
1.397,-0.140
1.397,-0.167
1.398,-0.165
1.398,-0.140
1.398,-0.138
1.399,-0.098
1.399,-0.098
1.399,-0.072
1.399,-0.072
1.399,-0.058
1.400,-0.058
1.400,-0.042
1.400,-0.042
1.401,-0.027
1.401,-0.025
1.401,-0.015
1.401,-0.017
1.401,0.003
1.402,0.005
1.402,0.037
1.402,0.038
1.403,0.063
1.403,0.067
1.403,0.088
1.403,0.088
1.403,0.098
1.404,0.098
1.404,0.103
1.404,0.102
1.405,0.095
1.405,0.093
1.405,0.082
1.405,0.082
1.405,0.067
1.406,0.070
1.406,0.063
1.406,0.065
1.407,0.057
1.407,0.057
1.407,0.050
1.407,0.050
1.407,0.038
1.408,0.037
1.408,0.023
1.408,0.022
1.409,0.007
1.409,0.005
1.409,-0.007
1.409,-0.005
1.409,-0.012
1.410,-0.012
1.410,-0.003
1.410,-0.005
1.411,0.002
1.411,0.000
1.411,0.008
1.411,0.005
1.411,0.000
1.412,-0.002
1.412,-0.008
1.412,-0.010
1.413,-0.007
1.413,-0.008
1.413,-0.002
1.413,-0.002
1.413,0.010
1.414,0.010
1.414,0.017
1.414,0.013
1.415,0.018
1.415,0.012
1.415,0.020
1.415,0.017
1.415,0.005
1.416,0.005
1.416,-0.010
1.416,-0.007
1.417,-0.012
1.417,-0.005
1.417,-0.010
1.417,-0.008
1.417,-0.003
1.418,-0.005
1.418,-0.008
1.418,-0.008
1.419,-0.003
1.419,-0.008
1.419,-0.003
1.419,-0.007
1.419,-0.003
1.420,-0.002
1.420,0.008
1.420,0.010
1.421,0.025
1.421,0.027
1.421,0.022
1.421,0.022
1.421,0.013
1.422,0.015
1.422,0.010
1.422,0.012
1.423,0.025
1.423,0.027
1.423,0.067
1.423,0.072
1.423,0.152
1.424,0.155
1.424,0.300
1.424,0.347
1.425,-0.277
1.425,-0.295
1.425,-0.423
1.425,-0.427
1.425,-0.230
1.426,-0.218
1.426,-0.095
1.426,-0.088
1.427,0.070
1.427,0.077
1.427,0.183
1.427,0.188
1.427,0.268
1.428,0.270
1.428,0.333
1.428,0.348
1.429,0.275
1.429,0.260
1.429,-0.298
1.429,-0.323
1.429,-0.570
1.430,-0.567
1.430,-0.360
1.430,-0.348
1.431,-0.075
1.431,-0.067
1.431,0.098
1.431,0.102
1.431,0.168
1.432,0.175
1.432,0.167
1.432,0.167
1.433,0.142
1.433,0.133
1.433,0.148
1.433,0.150
1.433,0.197
1.434,0.198
1.434,0.315
1.434,0.317
1.435,0.365
1.435,0.372
1.435,0.537
1.435,0.572
1.435,0.348
1.436,0.320
1.436,-0.513
1.436,-0.775
1.437,-0.440
1.437,-0.385
1.437,0.665
1.437,0.795
1.438,-2.395
1.438,-2.607
1.438,-1.398
1.438,-1.318
1.438,0.122
1.439,0.137
1.439,0.330
1.439,0.338
1.440,0.427
1.440,0.427
1.440,0.363
1.440,0.358
1.440,0.272
1.441,0.268
1.441,0.190
1.441,0.185
1.442,0.135
1.442,0.133
1.442,0.100
1.442,0.100
1.442,0.087
1.443,0.085
1.443,0.067
1.443,0.065
1.444,0.038
1.444,0.038
1.444,0.025
1.444,0.028
1.444,0.022
1.445,0.022
1.445,0.010
1.445,0.008
1.446,-0.023
1.446,-0.025
1.446,-0.062
1.446,-0.062
1.446,-0.095
1.447,-0.100
1.447,-0.093
1.447,-0.093
1.448,-0.067
1.448,-0.067
1.448,-0.038
1.448,-0.038
1.448,-0.020
1.449,-0.022
1.449,-0.010
1.449,-0.010
1.450,0.002
1.450,0.003
1.450,0.018
1.450,0.017
1.450,0.028
1.451,0.027
1.451,0.033
1.451,0.032
1.452,0.025
1.452,0.023
1.452,0.027
1.452,0.025
1.452,0.020
1.453,0.022
1.453,0.018
1.453,0.022
1.454,0.018
1.454,0.020
1.454,0.013
1.454,0.018
1.454,0.013
1.455,0.017
1.455,0.008
1.455,0.010
1.456,-0.005
1.456,-0.005
1.456,-0.010
1.456,-0.008
1.456,-0.013
1.457,-0.013
1.457,-0.008
1.457,-0.008
1.458,-0.013
1.458,-0.012
1.458,-0.007
1.458,-0.010
1.458,-0.002
1.459,-0.005
1.459,0.000
1.459,0.000
1.460,-0.005
1.460,-0.003
1.460,-0.012
1.460,-0.012
1.460,-0.020
1.461,-0.020
1.461,-0.037
1.461,-0.035
1.462,-0.043
1.462,-0.042
1.462,-0.030
1.462,-0.030
1.462,-0.017
1.463,-0.017
1.463,0.000
1.463,0.002
1.464,0.013
1.464,0.013
1.464,0.022
1.464,0.022
1.464,0.025
1.465,0.025
1.465,0.020
1.465,0.018
1.466,0.022
1.466,0.022
1.466,0.017
1.466,0.018
1.466,0.015
1.467,0.018
1.467,0.008
1.467,0.010
1.468,0.002
1.468,0.002
1.468,-0.003
1.468,-0.002
1.468,-0.005
1.469,-0.003
1.469,-0.013
1.469,-0.012
1.470,-0.017
1.470,-0.017
1.470,-0.015
1.470,-0.017
1.470,-0.013
1.471,-0.015
1.471,-0.012
1.471,-0.013
1.472,-0.017
1.472,-0.015
1.472,-0.012
1.472,-0.010
1.472,-0.015
1.473,-0.008
1.473,-0.017
1.473,-0.017
1.474,-0.023
1.474,-0.022
1.474,-0.025
1.474,-0.023
1.474,-0.017
1.475,-0.018
1.475,-0.012
1.475,-0.015
1.476,-0.012
1.476,-0.015
1.476,-0.012
1.476,-0.010
1.476,-0.013
1.477,-0.012
1.477,-0.005
1.477,-0.005
1.478,-0.010
1.478,-0.008
1.478,-0.013
1.478,-0.015
1.478,-0.012
1.479,-0.015
1.479,-0.007
1.479,-0.007
1.480,-0.002
1.480,-0.005
1.480,0.002
1.480,0.002
1.480,0.007
1.481,0.007
1.481,0.012
1.481,0.013
1.482,0.023
1.482,0.023
1.482,0.037
1.482,0.035
1.482,0.040
1.483,0.042
1.483,0.035
1.483,0.038
1.484,0.032
1.484,0.033
1.484,0.040
1.484,0.040
1.484,0.043
1.485,0.043
1.485,0.050
1.485,0.048
1.486,0.052
1.486,0.052
1.486,0.047
1.486,0.048
1.486,0.038
1.487,0.038
1.487,0.017
1.487,0.015
1.488,-0.010
1.488,-0.010
1.488,-0.028
1.488,-0.027
1.488,-0.032
1.489,-0.035
1.489,-0.028
1.489,-0.030
1.490,-0.020
1.490,-0.020
1.490,-0.013
1.490,-0.015
1.490,-0.025
1.491,-0.025
1.491,-0.030
1.491,-0.032
1.492,-0.027
1.492,-0.030
1.492,-0.022
1.492,-0.023
1.492,-0.015
1.493,-0.013
1.493,-0.002
1.493,-0.002
1.494,0.010
1.494,0.010
1.494,0.017
1.494,0.010
1.494,0.013
1.495,0.012
1.495,0.015
1.495,0.017
1.496,0.013
1.496,0.017
1.496,0.012
1.496,0.013
1.496,0.017
1.497,0.013
1.497,0.015
1.497,0.015
1.498,0.005
1.498,0.003
1.498,-0.015
1.498,-0.017
1.498,-0.023
1.499,-0.025
1.499,-0.018
1.499,-0.022
1.500,-0.013
1.500,-0.015
1.500,-0.012
1.500,-0.012
1.500,-0.017
1.501,-0.017
1.501,-0.028
1.501,0.100
1.502,-0.027
1.502,-0.032
1.502,-0.030
1.502,-0.023
1.502,-0.023
1.503,-0.027
1.503,-0.025
1.503,-0.017
1.504,-0.017
1.504,-0.010
1.504,-0.012
1.504,-0.002
1.504,-0.002
1.505,0.003
1.505,0.000
1.505,0.005
1.506,0.005
1.506,0.002
1.506,0.003
1.506,0.010
1.506,0.008
1.507,0.003
1.507,0.005
1.507,0.000
1.508,0.002
1.508,-0.002
1.508,-0.002
1.508,-0.008
1.508,-0.008
1.509,-0.020
1.509,-0.020
1.509,-0.017
1.510,-0.020
1.510,-0.015
1.510,-0.017
1.510,-0.007
1.510,-0.008
1.511,0.000
1.511,-0.002
1.511,0.003
1.512,0.002
1.512,0.008
1.512,0.005
1.512,0.017
1.512,0.017
1.513,0.030
1.513,0.030
1.513,0.035
1.514,0.035
1.514,0.030
1.514,0.030
1.514,0.022
1.514,0.022
1.515,0.012
1.515,0.012
1.515,-0.003
1.516,-0.005
1.516,-0.015
1.516,-0.015
1.516,-0.025
1.516,-0.025
1.517,-0.033
1.517,-0.030
1.517,-0.045
1.518,-0.045
1.518,-0.057
1.518,-0.058
1.518,-0.068
1.518,-0.067
1.519,-0.050
1.519,-0.050
1.519,-0.037
1.520,-0.037
1.520,-0.027
1.520,-0.028
1.520,-0.013
1.520,-0.015
1.521,-0.005
1.521,-0.005
1.521,0.002
1.522,0.002
1.522,0.013
1.522,0.010
1.522,0.017
1.522,0.015
1.523,0.027
1.523,0.025
1.523,0.030
1.524,0.028
1.524,0.035
1.524,0.033
1.524,0.025
1.524,0.027
1.525,0.022
1.525,0.025
1.525,0.022
1.526,0.023
1.526,0.017
1.526,0.017
1.526,0.010
1.526,0.008
1.527,0.003
1.527,0.005
1.527,0.000
1.528,-0.002
1.528,0.005
1.528,0.002
1.528,0.007
1.528,0.005
1.529,0.012
1.529,0.010
1.529,0.015
1.530,0.013
1.530,0.015
1.530,0.013
1.530,0.030
1.530,0.032
1.531,0.050
1.531,0.050
1.531,0.060
1.532,0.063
1.532,0.057
1.532,0.057
1.532,0.010
1.532,0.007
1.533,-0.073
1.533,-0.077
1.533,-0.175
1.534,-0.178
1.534,-0.212
1.534,-0.212
1.534,-0.168
1.534,-0.165
1.535,-0.090
1.535,-0.087
1.535,-0.020
1.536,-0.017
1.536,0.027
1.536,0.028
1.536,0.053
1.536,0.052
1.537,0.062
1.537,0.062
1.537,0.068
1.538,0.070
1.538,0.120
1.538,0.123
1.538,0.218
1.538,0.222
1.539,0.335
1.539,0.338
1.539,0.463
1.540,0.470
1.540,0.647
1.540,0.663
1.540,0.370
1.540,0.342
1.541,-0.528
1.541,-0.698
1.541,-0.113
1.542,-0.018
1.542,0.855
1.542,0.820
1.542,-2.220
1.542,-2.237
1.543,-1.330
1.543,-1.260
1.543,-0.138
1.544,-0.157
1.544,0.090
1.544,0.112
1.544,0.362
1.544,0.367
1.545,0.440
1.545,0.440
1.545,0.458
1.546,0.460
1.546,0.415
1.546,0.422
1.546,0.412
1.546,0.415
1.547,0.268
1.547,0.248
1.547,-0.290
1.548,-0.315
1.548,-0.585
1.548,-0.580
1.548,-0.378
1.548,-0.367
1.549,-0.117
1.549,-0.108
1.549,0.038
1.550,0.042
1.550,0.100
1.550,0.103
1.550,0.097
1.550,0.098
1.551,0.085
1.551,0.085
1.551,0.075
1.552,0.078
1.552,0.073
1.552,0.073
1.552,0.067
1.552,0.065
1.553,0.057
1.553,0.055
1.553,0.048
1.554,0.050
1.554,0.057
1.554,0.055
1.554,0.065
1.554,0.065
1.555,0.072
1.555,0.070
1.555,0.060
1.556,0.060
1.556,0.030
1.556,0.028
1.556,-0.018
1.556,-0.018
1.557,-0.038
1.557,-0.038
1.557,-0.040
1.558,-0.035
1.558,-0.043
1.558,-0.043
1.558,-0.048
1.558,-0.047
1.559,-0.052
1.559,-0.050
1.559,-0.055
1.560,-0.052
1.560,-0.045
1.560,-0.047
1.560,-0.037
1.560,-0.038
1.561,-0.035
1.561,-0.037
1.561,-0.027
1.562,-0.027
1.562,-0.020
1.562,-0.022
1.562,-0.017
1.562,-0.017
1.563,-0.013
1.563,-0.017
1.563,-0.010
1.563,-0.012
1.564,-0.008
1.564,-0.010
1.564,-0.003
1.565,-0.005
1.565,0.002
1.565,0.000
1.565,0.005
1.565,0.005
1.566,0.012
1.566,0.012
1.566,0.005
1.567,0.005
1.567,0.008
1.567,0.007
1.567,0.010
1.567,0.010
1.568,0.005
1.568,0.005
1.568,0.013
1.569,0.015
1.569,0.032
1.569,0.032
1.569,0.037
1.569,0.035
1.570,0.040
1.570,0.037
1.570,0.023
1.571,0.023
1.571,0.012
1.571,0.012
1.571,0.005
1.571,0.007
1.572,0.012
1.572,0.013
1.572,0.008
1.573,0.012
1.573,0.007
1.573,0.007
1.573,0.000
1.573,0.002
1.574,-0.003
1.574,-0.002
1.574,-0.007
1.575,-0.002
1.575,-0.005
1.575,-0.005
1.575,-0.002
1.575,-0.005
1.576,-0.002
1.576,0.000
1.576,-0.007
1.577,-0.003
1.577,-0.008
1.577,-0.007
1.577,-0.015
1.577,-0.015
1.578,-0.025
1.578,-0.025
1.578,-0.032
1.579,-0.030
1.579,-0.020
1.579,-0.020
1.579,-0.008
1.579,-0.007
1.580,-0.003
1.580,-0.007
1.580,0.000
1.581,-0.002
1.581,0.007
1.581,0.008
1.581,0.017
1.581,0.018
1.582,0.013
1.582,0.020
1.582,0.015
1.583,0.018
1.583,0.007
1.583,0.008
1.583,0.000
1.583,0.000
1.584,-0.002
1.584,-0.007
1.584,0.002
1.585,-0.002
1.585,0.003
1.585,0.003
1.585,0.007
1.585,0.008
1.586,0.003
1.586,0.008
1.586,0.002
1.587,0.003
1.587,-0.003
1.587,-0.005
1.587,-0.002
1.587,-0.002
1.588,-0.007
1.588,-0.005
1.588,-0.002
1.589,-0.003
1.589,0.000
1.589,-0.005
1.589,-0.002
1.589,-0.002
1.590,-0.005
1.590,-0.005
1.590,0.000
1.591,0.000
1.591,-0.002
1.591,0.000
1.591,-0.003
1.591,-0.002
1.592,-0.008
1.592,-0.008
1.592,-0.015
1.593,-0.012
1.593,-0.022
1.593,-0.022
1.593,-0.028
1.593,-0.028
1.594,-0.033
1.594,-0.033
1.594,-0.030
1.595,-0.028
1.595,-0.033
1.595,-0.028
1.595,-0.017
1.595,-0.017
1.596,-0.008
1.596,-0.008
1.596,0.003
1.597,0.002
1.597,0.007
1.597,0.007
1.597,0.002
1.597,0.002
1.598,0.005
1.598,0.003
1.598,-0.002
1.599,-0.003
1.599,0.002
1.599,-0.002
1.599,0.007
1.599,0.005
1.600,0.015
1.600,0.013
1.600,0.023
1.601,0.025
1.601,0.037
1.601,0.038
1.601,0.043
1.601,0.040
1.602,0.033
1.602,0.033
1.602,0.042
1.603,0.043
1.603,0.052
1.603,0.052
1.603,0.062
1.603,0.058
1.604,0.038
1.604,0.037
1.604,0.020
1.605,0.018
1.605,0.008
1.605,0.010
1.605,0.003
1.605,0.003
1.606,0.012
1.606,0.010
1.606,0.018
1.607,0.018
1.607,0.022
1.607,0.017
1.607,0.007
1.607,0.003
1.608,0.010
1.608,0.008
1.608,0.012
1.609,0.008
1.609,-0.008
1.609,-0.010
1.609,-0.033
1.609,-0.032
1.610,-0.038
1.610,-0.033
1.610,-0.047
1.611,-0.047
1.611,-0.063
1.611,-0.063
1.611,-0.067
1.611,-0.063
1.612,-0.055
1.612,-0.055
1.612,-0.047
1.613,-0.047
1.613,-0.035
1.613,-0.037
1.613,-0.022
1.613,-0.020
1.614,-0.002
1.614,-0.002
1.614,0.017
1.615,0.018
1.615,0.023
1.615,0.023
1.615,0.020
1.615,0.022
1.616,0.010
1.616,0.012
1.616,0.000
1.617,0.000
1.617,-0.005
1.617,-0.003
1.617,-0.015
1.617,-0.013
1.618,-0.025
1.618,-0.025
1.618,-0.027
1.619,-0.027
1.619,-0.018
1.619,-0.020
1.619,-0.015
1.619,-0.015
1.620,-0.010
1.620,-0.010
1.620,-0.015
1.621,-0.012
1.621,-0.015
1.621,-0.013
1.621,-0.018
1.621,-0.015
1.622,-0.022
1.622,-0.020
1.622,-0.017
1.623,-0.012
1.623,-0.020
1.623,-0.017
1.623,-0.020
1.623,-0.018
1.624,-0.025
1.624,-0.022
1.624,-0.027
1.625,-0.025
1.625,-0.022
1.625,-0.023
1.625,-0.017
1.625,-0.017
1.626,-0.013
1.626,-0.013
1.626,-0.007
1.627,-0.005
1.627,0.000
1.627,0.000
1.627,0.010
1.627,0.010
1.628,0.017
1.628,0.018
1.628,0.028
1.629,0.027
1.629,0.085
1.629,0.088
1.629,0.182
1.629,0.185
1.630,0.283
1.630,0.287
1.630,0.400
1.631,0.405
1.631,0.565
1.631,0.583
1.631,0.267
1.631,0.233
1.632,-0.678
1.632,-0.835
1.632,-0.102
1.633,-0.333
1.633,0.743
1.633,0.733
1.633,-2.558
1.633,-2.512
1.634,-0.977
1.634,-0.890
1.634,0.220
1.635,0.225
1.635,0.385
1.635,0.367
1.635,0.403
1.635,0.402
1.636,0.337
1.636,0.333
1.636,0.263
1.637,0.260
1.637,0.148
1.637,0.147
1.637,0.088
1.637,0.087
1.638,0.067
1.638,0.067
1.638,0.055
1.639,0.055
1.639,0.035
1.639,0.033
1.639,0.007
1.639,0.007
1.640,-0.025
1.640,-0.027
1.640,-0.050
1.641,-0.052
1.641,-0.065
1.641,-0.063
1.641,-0.050
1.641,-0.052
1.642,-0.025
1.642,-0.022
1.642,0.020
1.643,0.022
1.643,0.072
1.643,0.073
1.643,0.100
1.643,0.102
1.644,0.078
1.644,0.077
1.644,0.018
1.645,0.015
1.645,-0.073
1.645,-0.075
1.645,-0.097
1.645,-0.092
1.646,-0.005
1.646,0.000
1.646,0.178
1.647,0.185
1.647,0.370
1.647,0.243
1.647,-0.312
1.647,-0.313
1.648,-0.233
1.648,-0.225
1.648,-0.050
1.649,-0.048
1.649,0.048
1.649,0.052
1.649,0.170
1.649,0.173
1.650,0.273
1.650,0.277
1.650,0.338
1.651,0.340
1.651,0.372
1.651,0.362
1.651,0.068
1.651,0.050
1.652,-0.527
1.652,-0.560
1.652,-0.503
1.653,-0.497
1.653,-0.212
1.653,-0.202
1.653,0.027
1.653,0.035
1.654,0.147
1.654,0.150
1.654,0.178
1.655,0.178
1.655,0.163
1.655,0.162
1.655,0.133
1.655,0.133
1.656,0.103
1.656,0.102
1.656,0.077
1.657,0.113
1.657,0.077
1.657,0.072
1.657,0.022
1.657,0.020
1.658,0.012
1.658,0.012
1.658,0.015
1.659,0.012
1.659,0.015
1.659,0.012
1.659,0.003
1.659,0.007
1.660,-0.002
1.660,-0.002
1.660,-0.005
1.661,-0.005
1.661,-0.012
1.661,-0.008
1.661,-0.013
1.661,-0.013
1.662,-0.008
1.662,-0.010
1.662,-0.017
1.663,-0.015
1.663,-0.012
1.663,-0.015
1.663,-0.012
1.663,-0.013
1.664,-0.010
1.664,-0.008
1.664,0.002
1.665,-0.002
1.665,0.007
1.665,0.007
1.665,0.010
1.665,0.007
1.666,0.010
1.666,0.005
1.666,0.010
1.667,0.012
1.667,0.010
1.667,0.008
1.667,0.010
1.667,0.012
1.668,0.005
1.668,0.007
1.668,0.003
1.669,0.003
1.669,-0.002
1.669,-0.002
1.669,-0.010
1.669,-0.012
1.670,-0.018
1.670,-0.018
1.670,-0.022
1.671,-0.020
1.671,-0.025
1.671,-0.025
1.671,-0.032
1.671,-0.032
1.672,-0.042
1.672,-0.040
1.672,-0.050
1.673,-0.050
1.673,-0.058
1.673,-0.058
1.673,-0.063
1.673,-0.062
1.674,-0.052
1.674,-0.053
1.674,-0.040
1.675,-0.042
1.675,-0.030
1.675,-0.030
1.675,-0.023
1.675,-0.023
1.676,-0.018
1.676,-0.020
1.676,-0.017
1.677,-0.022
1.677,-0.017
1.677,-0.020
1.677,-0.015
1.677,-0.020
1.678,-0.012
1.678,-0.012
1.678,-0.015
1.679,-0.015
1.679,-0.023
1.679,-0.023
1.679,-0.035
1.679,-0.033
1.680,-0.038
1.680,-0.037
1.680,-0.032
1.681,-0.033
1.681,-0.028
1.681,-0.030
1.681,-0.035
1.681,-0.035
1.682,-0.032
1.682,-0.033
1.682,-0.027
1.683,-0.028
1.683,-0.010
1.683,-0.010
1.683,0.000
1.683,0.000
1.684,0.010
1.684,0.010
1.684,0.017
1.685,0.017
1.685,0.025
1.685,0.023
1.685,0.033
1.685,0.033
1.686,0.043
1.686,0.043
1.686,0.050
1.687,0.050
1.687,0.045
1.687,0.045
1.687,0.040
1.688,0.038
1.688,0.035
1.688,0.035
1.688,0.028
1.688,0.030
1.689,0.017
1.689,0.017
1.689,0.007
1.690,0.007
1.690,0.003
1.690,0.003
1.690,0.007
1.690,0.005
1.691,0.008
1.691,0.007
1.691,0.003
1.692,0.007
1.692,0.003
1.692,0.005
1.692,0.002
1.692,0.005
1.693,-0.007
1.693,-0.008
1.693,-0.013
1.694,-0.010
1.694,-0.007
1.694,-0.012
1.694,-0.008
1.694,-0.008
1.695,-0.013
1.695,-0.013
1.695,-0.022
1.696,-0.022
1.696,-0.027
1.696,-0.023
1.696,-0.008
1.696,-0.010
1.697,0.007
1.697,0.007
1.697,0.013
1.698,0.008
1.698,0.013
1.698,0.008
1.698,0.012
1.698,0.010
1.699,0.015
1.699,0.015
1.699,0.010
1.700,0.013
1.700,0.008
1.700,0.010
1.700,0.005
1.700,0.002
1.701,0.007
1.701,0.003
1.701,0.007
1.702,0.005
1.702,0.007
1.702,0.007
1.702,0.002
1.702,0.000
1.703,0.005
1.703,0.003
1.703,0.000
1.704,-0.002
1.704,-0.007
1.704,-0.008
1.704,-0.003
1.704,-0.007
1.705,-0.003
1.705,-0.005
1.705,0.000
1.706,-0.002
1.706,0.005
1.706,0.003
1.706,0.008
1.706,0.008
1.707,0.017
1.707,0.017
1.707,0.022
1.708,0.023
1.708,0.030
1.708,0.032
1.708,0.038
1.708,0.040
1.709,0.045
1.709,0.045
1.709,0.048
1.710,0.047
1.710,0.052
1.710,0.052
1.710,0.055
1.710,0.057
1.711,0.047
1.711,0.047
1.711,0.030
1.712,0.030
1.712,0.013
1.712,0.012
1.712,-0.007
1.712,-0.008
1.713,-0.027
1.713,-0.028
1.713,-0.033
1.714,-0.028
1.714,-0.022
1.714,-0.022
1.714,-0.025
1.714,-0.027
1.715,-0.038
1.715,-0.035
1.715,-0.038
1.716,-0.037
1.716,-0.028
1.716,-0.028
1.716,-0.025
1.716,-0.030
1.717,-0.027
1.717,-0.030
1.717,-0.037
1.718,-0.037
1.718,-0.050
1.718,-0.047
1.718,-0.057
1.718,-0.058
1.719,-0.053
1.719,-0.053
1.719,-0.038
1.720,-0.037
1.720,-0.018
1.720,-0.018
1.720,-0.002
1.720,0.002
1.721,0.012
1.721,0.010
1.721,0.022
1.722,0.022
1.722,0.018
1.722,0.017
1.722,0.022
1.722,0.018
1.723,0.013
1.723,0.015
1.723,0.007
1.724,0.007
1.724,0.038
1.724,0.043
1.724,0.120
1.724,0.125
1.725,0.203
1.725,0.208
1.725,0.325
1.726,0.332
1.726,0.502
1.726,0.545
1.726,0.352
1.726,0.327
1.727,-0.532
1.727,-0.827
1.727,-0.468
1.728,-0.530
1.728,0.617
1.728,0.720
1.728,-1.997
1.728,-2.572
1.729,-1.465
1.729,-1.380
1.729,0.152
1.730,-0.013
1.730,0.262
1.730,0.278
1.730,0.415
1.730,0.413
1.731,0.333
1.731,0.330
1.731,0.252
1.732,0.250
1.732,0.145
1.732,0.142
1.732,0.092
1.732,0.090
1.733,0.063
1.733,0.065
1.733,0.052
1.734,0.052
1.734,0.042
1.734,0.040
1.734,0.027
1.734,0.027
1.735,0.017
1.735,0.018
1.735,0.010
1.736,0.015
1.736,0.010
1.736,0.010
1.736,0.008
1.736,0.008
1.737,0.010
1.737,0.007
1.737,0.010
1.738,0.007
1.738,0.013
1.738,0.012
1.738,0.017
1.738,0.017
1.739,0.022
1.739,0.020
1.739,0.022
1.740,0.018
1.740,0.022
1.740,0.020
1.740,0.013
1.740,0.017
1.741,0.013
1.741,0.013
1.741,0.017
1.742,0.015
1.742,0.022
1.742,0.020
1.742,0.028
1.742,0.027
1.743,0.032
1.743,0.032
1.743,0.027
1.744,0.025
1.744,0.013
1.744,0.012
1.744,0.002
1.744,0.002
1.745,-0.022
1.745,-0.022
1.745,-0.050
1.746,-0.053
1.746,-0.060
1.746,-0.062
1.746,-0.050
1.746,-0.048
1.747,-0.033
1.747,-0.033
1.747,-0.018
1.748,-0.020
1.748,-0.005
1.748,-0.003
1.748,0.008
1.748,0.007
1.749,0.015
1.749,0.012
1.749,0.015
1.750,0.015
1.750,0.012
1.750,0.012
1.750,0.003
1.750,0.003
1.751,-0.005
1.751,-0.002
1.751,-0.007
1.752,0.100
1.752,-0.005
1.752,0.002
1.752,0.000
1.752,0.003
1.753,0.003
1.753,0.002
1.753,0.003
1.754,0.000
1.754,-0.002
1.754,0.005
1.754,0.002
1.754,0.010
1.755,0.008
1.755,0.022
1.755,0.022
1.756,0.037
1.756,0.035
1.756,0.050
1.756,0.050
1.756,0.062
1.757,0.062
1.757,0.085
1.757,0.087
1.758,0.108
1.758,0.110
1.758,0.153
1.758,0.157
1.758,0.235
1.759,0.240
1.759,0.370
1.759,0.400
1.760,-0.273
1.760,-0.288
1.760,-0.393
1.760,-0.392
1.760,-0.200
1.761,-0.193
1.761,-0.098
1.761,-0.093
1.762,0.043
1.762,0.047
1.762,0.133
1.762,0.138
1.762,0.198
1.763,0.200
1.763,0.245
1.763,0.252
1.764,0.133
1.764,0.117
1.764,-0.443
1.764,-0.467
1.764,-0.682
1.765,-0.672
1.765,-0.447
1.765,-0.435
1.766,-0.163
1.766,-0.153
1.766,0.018
1.766,0.023
1.766,0.102
1.767,0.103
1.767,0.127
1.767,0.127
1.768,0.120
1.768,0.120
1.768,0.110
1.768,0.108
1.768,0.078
1.769,0.077
1.769,0.115
1.769,0.102
1.770,0.037
1.770,0.040
1.770,0.048
1.770,0.050
1.770,0.060
1.771,0.065
1.771,0.060
1.771,0.062
1.772,0.050
1.772,0.050
1.772,0.038
1.772,0.040
1.772,0.025
1.773,0.023
1.773,0.010
1.773,0.010
1.774,-0.002
1.774,0.000
1.774,-0.005
1.774,-0.003
1.774,0.000
1.775,-0.002
1.775,0.007
1.775,0.008
1.776,0.020
1.776,0.018
1.776,0.027
1.776,0.027
1.776,0.032
1.777,0.032
1.777,0.040
1.777,0.038
1.778,0.045
1.778,0.043
1.778,0.050
1.778,0.047
1.778,0.052
1.779,0.048
1.779,0.043
1.779,0.043
1.780,0.035
1.780,0.035
1.780,0.027
1.780,0.027
1.780,0.017
1.781,0.017
1.781,0.008
1.781,0.007
1.782,-0.005
1.782,-0.003
1.782,-0.015
1.782,-0.013
1.782,-0.023
1.783,-0.025
1.783,-0.032
1.783,-0.032
1.784,-0.038
1.784,-0.037
1.784,-0.022
1.784,-0.022
1.784,0.005
1.785,0.007
1.785,0.023
1.785,0.023
1.786,0.033
1.786,0.035
1.786,0.007
1.786,0.005
1.786,-0.058
1.787,-0.062
1.787,-0.155
1.787,-0.160
1.788,-0.202
1.788,-0.200
1.788,-0.168
1.788,-0.165
1.788,-0.097
1.789,-0.093
1.789,-0.028
1.789,-0.027
1.790,0.018
1.790,0.020
1.790,0.035
1.790,0.035
1.790,0.048
1.791,0.048
1.791,0.070
1.791,0.072
1.792,0.095
1.792,0.095
1.792,0.102
1.792,0.102
1.792,0.098
1.793,0.098
1.793,0.100
1.793,0.098
1.794,0.090
1.794,0.092
1.794,0.082
1.794,0.083
1.794,0.072
1.795,0.072
1.795,0.062
1.795,0.062
1.796,0.050
1.796,0.050
1.796,0.043
1.796,0.043
1.796,0.033
1.797,0.033
1.797,0.027
1.797,0.027
1.798,0.020
1.798,0.018
1.798,0.008
1.798,0.008
1.798,-0.005
1.799,-0.005
1.799,-0.022
1.799,-0.022
1.800,-0.030
1.800,-0.028
1.800,-0.033
1.800,-0.030
1.800,-0.022
1.801,-0.025
1.801,-0.012
1.801,-0.010
1.802,0.007
1.802,0.008
1.802,0.017
1.802,0.017
1.802,0.028
1.803,0.028
1.803,0.035
1.803,0.038
1.804,0.032
1.804,0.033
1.804,0.025
1.804,0.025
1.804,0.015
1.805,0.017
1.805,0.010
1.805,0.012
1.806,0.007
1.806,0.008
1.806,0.003
1.806,0.005
1.806,0.010
1.807,0.008
1.807,0.003
1.807,0.007
1.808,0.002
1.808,0.007
1.808,0.002
1.808,0.003
1.808,-0.002
1.809,0.002
1.809,-0.007
1.809,-0.003
1.810,-0.010
1.810,-0.007
1.810,-0.017
1.810,-0.017
1.810,-0.027
1.811,-0.027
1.811,-0.030
1.811,-0.027
1.812,-0.033
1.812,-0.030
1.812,-0.025
1.812,-0.023
1.812,-0.017
1.813,-0.018
1.813,-0.007
1.813,-0.007
1.813,0.002
1.814,0.000
1.814,0.007
1.814,0.003
1.815,0.007
1.815,0.007
1.815,0.012
1.815,0.012
1.815,0.007
1.816,0.007
1.816,0.002
1.816,0.003
1.817,0.008
1.817,0.005
1.817,0.012
1.817,0.010
1.817,0.017
1.818,0.013
1.818,0.020
1.818,0.018
1.819,0.027
1.819,0.023
1.819,0.030
1.819,0.027
1.819,0.033
1.820,0.033
1.820,0.022
1.820,0.020
1.821,-0.007
1.821,-0.008
1.821,-0.035
1.821,-0.037
1.821,-0.048
1.822,-0.047
1.822,-0.050
1.822,-0.048
1.823,-0.037
1.823,-0.035
1.823,-0.025
1.823,-0.025
1.823,-0.032
1.824,-0.032
1.824,-0.043
1.824,-0.045
1.825,-0.035
1.825,-0.035
1.825,0.040
1.825,0.045
1.825,0.132
1.826,0.137
1.826,0.238
1.826,0.243
1.827,0.380
1.827,0.387
1.827,0.565
1.827,0.565
1.827,0.137
1.828,0.100
1.828,-0.770
1.828,-0.830
1.829,0.072
1.829,-0.208
1.829,0.735
1.829,0.642
1.829,-2.430
1.830,-2.243
1.830,-0.708
1.830,-0.625
1.831,0.132
1.831,-0.007
1.831,0.393
1.831,0.400
1.831,0.438
1.832,0.413
1.832,0.317
1.832,0.313
1.833,0.237
1.833,0.233
1.833,0.133
1.833,0.132
1.833,0.083
1.834,0.082
1.834,0.055
1.834,0.055
1.835,0.040
1.835,0.038
1.835,0.023
1.835,0.022
1.835,0.015
1.836,0.010
1.836,0.017
1.836,0.013
1.837,0.020
1.837,0.018
1.837,0.010
1.837,0.010
1.837,0.013
1.838,0.012
1.838,0.022
1.838,0.020
1.839,0.027
1.839,0.027
1.839,0.018
1.839,0.020
1.839,0.013
1.840,0.015
1.840,0.012
1.840,0.013
1.841,0.020
1.841,0.022
1.841,0.030
1.841,0.030
1.841,0.047
1.842,0.045
1.842,0.057
1.842,0.053
1.843,0.065
1.843,0.067
1.843,0.055
1.843,0.055
1.843,0.028
1.844,0.028
1.844,0.000
1.844,-0.002
1.845,-0.045
1.845,-0.045
1.845,-0.083
1.845,-0.085
1.845,-0.095
1.846,-0.093
1.846,-0.082
1.846,-0.083
1.847,-0.080
1.847,-0.083
1.847,-0.090
1.847,-0.093
1.847,-0.087
1.848,-0.090
1.848,-0.082
1.848,-0.083
1.849,-0.077
1.849,-0.078
1.849,-0.063
1.849,-0.063
1.849,-0.045
1.850,-0.045
1.850,-0.023
1.850,-0.023
1.851,-0.002
1.851,0.000
1.851,0.010
1.851,0.010
1.851,0.017
1.852,0.017
1.852,0.013
1.852,0.013
1.853,0.017
1.853,0.013
1.853,0.010
1.853,0.012
1.853,0.005
1.854,0.005
1.854,-0.002
1.854,0.000
1.855,-0.007
1.855,-0.003
1.855,-0.008
1.855,-0.010
1.855,-0.005
1.856,-0.008
1.856,-0.010
1.856,-0.008
1.857,-0.012
1.857,-0.013
1.857,-0.010
1.857,-0.013
1.857,-0.008
1.858,-0.008
1.858,0.000
1.858,-0.002
1.859,0.002
1.859,0.000
1.859,-0.003
1.859,-0.005
1.859,-0.002
1.860,-0.005
1.860,0.000
1.860,-0.002
1.861,0.003
1.861,0.000
1.861,0.010
1.861,0.010
1.861,0.017
1.862,0.017
1.862,0.023
1.862,0.022
1.863,0.030
1.863,0.030
1.863,0.042
1.863,0.040
1.863,0.047
1.864,0.048
1.864,0.052
1.864,0.053
1.865,0.067
1.865,0.067
1.865,0.083
1.865,0.085
1.865,0.108
1.866,0.110
1.866,0.168
1.866,0.173
1.867,0.270
1.867,0.390
1.867,0.200
1.867,0.123
1.867,-0.375
1.868,-0.388
1.868,-0.295
1.868,-0.287
1.869,-0.102
1.869,-0.097
1.869,0.048
1.869,0.057
1.869,0.172
1.870,0.175
1.870,0.255
1.870,0.260
1.871,0.312
1.871,0.313
1.871,0.338
1.871,0.312
1.871,-0.063
1.872,-0.093
1.872,-0.590
1.872,-0.612
1.873,-0.515
1.873,-0.503
1.873,-0.218
1.873,-0.207
1.873,0.007
1.874,0.013
1.874,0.117
1.874,0.120
1.875,0.147
1.875,0.147
1.875,0.132
1.875,0.132
1.875,0.113
1.876,0.113
1.876,0.080
1.876,0.058
1.877,0.085
1.877,0.088
1.877,0.005
1.877,0.000
1.877,-0.012
1.878,-0.015
1.878,-0.005
1.878,-0.008
1.879,-0.003
1.879,-0.005
1.879,-0.012
1.879,-0.013
1.879,-0.010
1.880,-0.010
1.880,-0.005
1.880,-0.007
1.881,0.000
1.881,-0.002
1.881,0.007
1.881,0.003
1.881,0.008
1.882,0.005
1.882,0.012
1.882,0.010
1.883,0.015
1.883,0.012
1.883,0.015
1.883,0.017
1.883,0.010
1.884,0.010
1.884,-0.005
1.884,-0.007
1.885,-0.022
1.885,-0.020
1.885,-0.032
1.885,-0.032
1.885,-0.042
1.886,-0.042
1.886,-0.050
1.886,-0.050
1.887,-0.058
1.887,-0.058
1.887,-0.050
1.887,-0.052
1.887,-0.038
1.888,-0.040
1.888,-0.037
1.888,-0.037
1.889,-0.032
1.889,-0.033
1.889,-0.028
1.889,-0.027
1.889,-0.018
1.890,-0.018
1.890,-0.008
1.890,-0.008
1.891,0.005
1.891,0.003
1.891,0.013
1.891,0.013
1.891,0.018
1.892,0.018
1.892,0.027
1.892,0.027
1.893,0.035
1.893,0.033
1.893,0.040
1.893,0.038
1.893,0.042
1.894,0.042
1.894,0.047
1.894,0.048
1.895,0.045
1.895,0.048
1.895,0.045
1.895,0.045
1.895,0.042
1.896,0.043
1.896,0.038
1.896,0.040
1.897,0.028
1.897,0.030
1.897,0.015
1.897,0.017
1.897,0.005
1.898,0.007
1.898,0.003
1.898,0.007
1.899,0.002
1.899,0.003
1.899,0.005
1.899,0.007
1.899,-0.002
1.900,0.000
1.900,0.005
1.900,0.003
1.901,0.007
1.901,0.005
1.901,-0.003
1.901,-0.002
1.901,-0.013
1.902,-0.012
1.902,-0.017
1.902,-0.017
1.903,-0.027
1.903,-0.027
1.903,-0.033
1.903,-0.033
1.903,-0.038
1.904,-0.037
1.904,-0.040
1.904,-0.038
1.905,-0.042
1.905,-0.042
1.905,-0.030
1.905,-0.030
1.905,-0.013
1.906,-0.013
1.906,-0.002
1.906,-0.002
1.907,0.005
1.907,0.003
1.907,0.008
1.907,0.010
1.907,0.038
1.908,0.038
1.908,0.062
1.908,0.063
1.909,0.055
1.909,0.055
1.909,0.033
1.909,0.030
1.909,-0.033
1.910,-0.035
1.910,-0.120
1.910,-0.125
1.911,-0.203
1.911,-0.213
1.911,-0.197
1.911,-0.195
1.911,-0.128
1.912,-0.127
1.912,-0.048
1.912,-0.045
1.913,0.018
1.913,0.020
1.913,0.057
1.913,0.057
1.913,0.068
1.914,0.072
1.914,0.062
1.914,0.060
1.915,0.045
1.915,0.045
1.915,0.028
1.915,0.028
1.915,0.023
1.916,0.022
1.916,0.023
1.916,0.023
1.917,0.033
1.917,0.035
1.917,0.047
1.917,0.048
1.917,0.057
1.918,0.055
1.918,0.060
1.918,0.063
1.919,0.057
1.919,0.058
1.919,0.047
1.919,0.047
1.919,0.033
1.920,0.033
1.920,0.022
1.920,0.022
1.921,0.013
1.921,0.015
1.921,0.008
1.921,0.005
1.921,0.012
1.922,0.015
1.922,0.082
1.922,0.085
1.923,0.173
1.923,0.177
1.923,0.288
1.923,0.293
1.923,0.433
1.924,0.442
1.924,0.587
1.924,0.562
1.925,-0.003
1.925,-0.042
1.925,-0.792
1.925,-0.792
1.925,-0.143
1.926,-0.378
1.926,0.630
1.926,0.250
1.927,-2.372
1.927,-1.938
1.927,-0.373
1.927,-0.300
1.927,0.090
1.928,0.040
1.928,0.393
1.928,0.410
1.929,0.368
1.929,0.365
1.929,0.277
1.929,0.273
1.929,0.200
1.930,0.195
1.930,0.117
1.930,0.115
1.931,0.080
1.931,0.078
1.931,0.063
1.931,0.063
1.931,0.060
1.932,0.062
1.932,0.053
1.932,0.053
1.933,0.040
1.933,0.040
1.933,0.020
1.933,0.018
1.933,0.008
1.934,0.007
1.934,0.012
1.934,0.005
1.935,0.010
1.935,0.010
1.935,0.015
1.935,0.015
1.935,0.022
1.936,0.022
1.936,0.018
1.936,0.018
1.937,0.023
1.937,0.018
1.937,0.022
1.937,0.022
1.938,0.018
1.938,0.018
1.938,0.015
1.938,0.015
1.938,0.020
1.939,0.013
1.939,0.017
1.939,0.015
1.940,0.010
1.940,0.010
1.940,0.015
1.940,0.015
1.940,0.022
1.941,0.023
1.941,0.028
1.941,0.028
1.942,0.035
1.942,0.032
1.942,0.037
1.942,0.037
1.942,0.015
1.943,0.013
1.943,-0.013
1.943,-0.013
1.944,-0.027
1.944,-0.027
1.944,-0.025
1.944,-0.027
1.944,-0.030
1.945,-0.028
1.945,-0.018
1.945,-0.018
1.946,-0.010
1.946,-0.010
1.946,-0.018
1.946,-0.020
1.946,-0.013
1.947,-0.013
1.947,-0.008
1.947,-0.008
1.948,0.002
1.948,-0.002
1.948,0.003
1.948,0.005
1.948,0.002
1.949,0.002
1.949,-0.008
1.949,-0.008
1.950,-0.022
1.950,-0.020
1.950,-0.030
1.950,-0.030
1.950,-0.038
1.951,-0.038
1.951,-0.042
1.951,-0.040
1.952,-0.037
1.952,-0.037
1.952,-0.028
1.952,-0.028
1.952,-0.020
1.953,-0.020
1.953,-0.015
1.953,-0.015
1.954,-0.008
1.954,-0.008
1.954,-0.010
1.954,-0.008
1.954,-0.005
1.955,-0.007
1.955,0.000
1.955,0.002
1.956,-0.005
1.956,-0.005
1.956,-0.002
1.956,-0.002
1.956,-0.007
1.957,-0.005
1.957,-0.017
1.957,-0.015
1.958,-0.020
1.958,-0.020
1.958,-0.017
1.958,-0.018
1.958,-0.015
1.959,-0.018
1.959,-0.013
1.959,-0.015
1.960,-0.010
1.960,-0.015
1.960,-0.012
1.960,-0.012
1.960,-0.015
1.961,-0.013
1.961,-0.008
1.961,-0.005
1.962,-0.010
1.962,-0.007
1.962,-0.003
1.962,-0.005
1.962,0.007
1.963,0.007
1.963,0.017
1.963,0.017
1.964,0.025
1.964,0.022
1.964,0.028
1.964,0.028
1.964,0.033
1.965,0.033
1.965,0.038
1.965,0.037
1.966,0.042
1.966,0.040
1.966,0.052
1.966,0.053
1.966,0.063
1.967,0.062
1.967,0.068
1.967,0.067
1.968,0.055
1.968,0.055
1.968,0.017
1.968,0.015
1.968,-0.037
1.969,-0.038
1.969,-0.073
1.969,-0.075
1.970,-0.068
1.970,-0.070
1.970,-0.058
1.970,-0.058
1.970,-0.048
1.971,-0.050
1.971,-0.042
1.971,-0.043
1.972,-0.035
1.972,-0.035
1.972,-0.032
1.972,-0.030
1.972,-0.022
1.973,-0.023
1.973,-0.017
1.973,-0.017
1.974,-0.010
1.974,-0.013
1.974,-0.007
1.974,-0.007
1.974,-0.010
1.975,-0.007
1.975,-0.012
1.975,-0.010
1.976,-0.018
1.976,-0.022
1.976,-0.015
1.976,-0.018
1.976,-0.008
1.977,-0.008
1.977,0.000
1.977,-0.003
1.978,0.015
1.978,0.013
1.978,0.028
1.978,0.030
1.978,0.035
1.979,0.035
1.979,0.027
1.979,0.028
1.980,0.022
1.980,0.020
1.980,0.025
1.980,0.022
1.980,0.025
1.981,0.023
1.981,0.020
1.981,0.023
1.982,0.032
1.982,0.030
1.982,0.043
1.982,0.043
1.982,0.060
1.983,0.060
1.983,0.087
1.983,0.088
1.984,0.110
1.984,0.110
1.984,0.132
1.984,0.132
1.984,0.173
1.985,0.177
1.985,0.237
1.985,0.288
1.986,-0.163
1.986,-0.212
1.986,-0.527
1.986,-0.553
1.986,-0.448
1.987,-0.437
1.987,-0.283
1.987,-0.278
1.988,-0.120
1.988,-0.113
1.988,0.037
1.988,0.042
1.988,0.162
1.989,0.167
1.989,0.257
1.989,0.260
1.990,0.302
1.990,0.283
1.990,-0.143
1.990,-0.175
1.990,-0.563
1.991,-0.567
1.991,-0.442
1.991,-0.430
1.992,-0.145
1.992,-0.135
1.992,0.075
1.992,0.083
1.992,0.195
1.993,0.198
1.993,0.240
1.993,0.238
1.994,0.245
1.994,0.245
1.994,0.232
1.994,0.232
1.994,0.197
1.995,0.182
1.995,0.215
1.995,0.215
1.996,0.122
1.996,0.120
1.996,0.095
1.996,0.093
1.996,0.058
1.997,0.058
1.997,0.030
1.997,0.030
1.998,0.010
1.998,0.008
1.998,-0.003
1.998,-0.003
1.998,-0.012
1.999,-0.012
1.999,-0.003
1.999,-0.003
2.000,0.003
2.000,0.002
2.000,0.013
2.000,0.013
2.001,0.023
2.001,0.022
2.001,0.017
2.001,0.017
2.002,0.013
2.002,0.100
2.002,0.015
2.002,0.010
2.002,0.012
2.003,0.005
2.003,0.005
2.003,-0.005
2.003,-0.003
2.004,-0.010
2.004,-0.007
2.004,-0.013
2.005,-0.012
2.005,-0.017
2.005,-0.013
2.005,-0.017
2.006,-0.017
2.006,-0.012
2.006,-0.013
2.006,-0.020
2.006,-0.018
2.007,-0.022
2.007,-0.022
2.007,-0.017
2.007,-0.020
2.008,-0.015
2.008,-0.017
2.008,-0.025
2.009,-0.023
2.009,-0.030
2.009,-0.027
2.009,-0.037
2.010,-0.033
2.010,-0.040
2.010,-0.038
2.010,-0.042
2.010,-0.043
2.011,-0.040
2.011,-0.045
2.011,-0.040
2.011,-0.042
2.012,-0.047
2.012,-0.047
2.012,-0.043
2.013,-0.043
2.013,-0.033
2.013,-0.033
2.013,-0.025
2.014,-0.025
2.014,-0.017
2.014,-0.017
2.014,-0.012
2.014,-0.010
2.015,-0.002
2.015,0.000
2.015,0.020
2.015,0.020
2.016,0.037
2.016,0.037
2.016,0.042
2.017,0.040
2.017,0.073
2.017,0.075
2.017,0.157
2.018,0.158
2.018,0.247
2.018,0.252
2.018,0.360
2.018,0.365
2.019,0.533
2.019,0.592
2.019,0.422
2.019,0.398
2.020,-0.478
2.020,-0.518
2.020,-0.822
2.021,-0.480
2.021,0.482
2.021,0.607
2.021,-2.018
2.022,-2.395
2.022,-1.377
2.022,-1.293
2.022,0.130
2.022,-0.013
2.023,0.233
2.023,0.235
2.023,0.350
2.023,0.362
2.024,0.322
2.024,0.318
2.024,0.252
2.025,0.250
2.025,0.153
2.025,0.152
2.025,0.112
2.026,0.110
2.026,0.088
2.026,0.088
2.026,0.080
2.026,0.078
2.027,0.067
2.027,0.065
2.027,0.050
2.027,0.052
2.028,0.040
2.028,0.040
2.028,0.028
2.029,0.027
2.029,0.012
2.029,0.010
2.029,0.000
2.030,-0.002
2.030,-0.012
2.030,-0.013
2.030,-0.028
2.030,-0.028
2.031,-0.037
2.031,-0.035
2.031,-0.040
2.031,-0.038
2.032,-0.032
2.032,-0.033
2.032,-0.027
2.033,-0.028
2.033,-0.022
2.033,-0.023
2.033,-0.010
2.034,-0.010
2.034,0.012
2.034,0.013
2.034,0.045
2.034,0.045
2.035,0.067
2.035,0.065
2.035,0.072
2.035,0.073
2.036,0.037
2.036,0.033
2.036,-0.038
2.037,-0.042
2.037,-0.153
2.037,-0.158
2.037,-0.207
2.038,-0.207
2.038,-0.175
2.038,-0.173
2.038,-0.100
2.038,-0.097
2.039,-0.028
2.039,-0.027
2.039,0.017
2.039,0.017
2.040,0.030
2.040,0.030
2.040,0.038
2.041,0.037
2.041,0.030
2.041,0.032
2.041,0.020
2.042,0.018
2.042,0.025
2.042,0.023
2.042,0.028
2.042,0.027
2.043,0.035
2.043,0.033
2.043,0.042
2.043,0.042
2.044,0.047
2.044,0.047
2.044,0.040
2.045,0.043
2.045,0.033
2.045,0.035
2.045,0.020
2.046,0.018
2.046,0.005
2.046,0.005
2.046,-0.002
2.046,-0.002
2.047,-0.010
2.047,-0.012
2.047,-0.005
2.047,-0.005
2.048,0.007
2.048,0.007
2.048,0.020
2.049,0.020
2.049,0.028
2.049,0.027
2.049,0.033
2.050,0.032
2.050,0.037
2.050,0.035
2.050,0.037
2.050,0.032
2.051,0.038
2.051,0.035
2.051,0.038
2.051,0.033
2.052,0.040
2.052,0.040
2.052,0.052
2.053,0.048
2.053,0.057
2.053,0.055
2.053,0.050
2.054,0.053
2.054,0.033
2.054,0.032
2.054,0.002
2.054,-0.002
2.055,-0.027
2.055,-0.028
2.055,-0.022
2.055,-0.022
2.056,-0.008
2.056,-0.008
2.056,-0.003
2.057,-0.003
2.057,-0.012
2.057,-0.013
2.057,-0.025
2.058,-0.025
2.058,-0.032
2.058,-0.027
2.058,-0.018
2.058,-0.018
2.059,0.002
2.059,0.000
2.059,0.010
2.059,0.012
2.060,0.007
2.060,0.007
2.060,0.000
2.061,0.003
2.061,-0.003
2.061,-0.003
2.061,-0.013
2.062,-0.008
2.062,-0.018
2.062,-0.015
2.062,-0.023
2.062,-0.022
2.063,-0.027
2.063,-0.025
2.063,-0.032
2.063,-0.028
2.064,-0.032
2.064,-0.030
2.064,-0.032
2.064,-0.033
2.065,-0.032
2.065,-0.030
2.065,-0.037
2.066,-0.038
2.066,-0.047
2.066,-0.045
2.066,-0.048
2.067,-0.050
2.067,-0.043
2.067,-0.045
2.067,-0.037
2.067,-0.037
2.068,-0.028
2.068,-0.030
2.068,-0.033
2.068,-0.033
2.069,-0.028
2.069,-0.032
2.069,-0.027
2.070,-0.030
2.070,-0.023
2.070,-0.027
2.070,-0.020
2.071,-0.018
2.071,-0.023
2.071,-0.018
2.071,-0.025
2.071,-0.020
2.072,-0.023
2.072,-0.020
2.072,-0.023
2.072,-0.017
2.073,-0.022
2.073,-0.018
2.073,-0.022
2.074,-0.022
2.074,-0.017
2.074,-0.018
2.074,-0.008
2.075,-0.012
2.075,-0.008
2.075,-0.010
2.075,-0.007
2.075,-0.005
2.076,-0.008
2.076,-0.008
2.076,-0.005
2.076,-0.007
2.077,0.000
2.077,0.000
2.077,0.008
2.078,0.007
2.078,0.017
2.078,0.015
2.078,0.025
2.079,0.025
2.079,0.040
2.079,0.042
2.079,0.058
2.079,0.060
2.080,0.073
2.080,0.073
2.080,0.088
2.080,0.090
2.081,0.113
2.081,0.117
2.081,0.148
2.082,0.150
2.082,0.210
2.082,0.213
2.082,0.315
2.083,0.322
2.083,0.443
2.083,0.353
2.083,-0.318
2.083,-0.352
2.084,-0.292
2.084,-0.285
2.084,-0.125
2.084,-0.123
2.085,-0.032
2.085,-0.027
2.085,0.090
2.086,0.095
2.086,0.172
2.086,0.175
2.086,0.222
2.087,0.223
2.087,0.243
2.087,0.237
2.087,-0.057
2.087,-0.073
2.088,-0.645
2.088,-0.698
2.088,-0.642
2.088,-0.633
2.089,-0.337
2.089,-0.325
2.089,-0.073
2.090,-0.065
2.090,0.075
2.090,0.080
2.090,0.135
2.091,0.137
2.091,0.142
2.091,0.135
2.091,0.113
2.091,0.112
2.092,0.087
2.092,0.070
2.092,0.090
2.092,0.115
2.093,0.062
2.093,0.057
2.093,0.033
2.094,0.033
2.094,0.037
2.094,0.038
2.094,0.035
2.095,0.037
2.095,0.028
2.095,0.028
2.095,0.020
2.095,0.020
2.096,0.012
2.096,0.013
2.096,0.000
2.096,-0.002
2.097,-0.008
2.097,-0.005
2.097,-0.010
2.098,-0.008
2.098,0.012
2.098,0.013
2.098,0.093
2.099,0.097
2.099,0.183
2.099,0.188
2.099,0.292
2.099,0.298
2.100,0.437
2.100,0.445
2.100,0.560
2.100,0.523
2.101,-0.110
2.101,-0.148
2.101,-0.813
2.102,-0.812
2.102,0.022
2.102,-0.287
2.102,0.842
2.103,-0.063
2.103,-2.415
2.103,-1.973
2.103,-0.345
2.103,-0.287
2.104,0.280
2.104,0.295
2.104,0.458
2.104,0.457
2.105,0.390
2.105,0.387
2.105,0.303
2.106,0.298
2.106,0.218
2.106,0.217
2.106,0.128
2.107,0.125
2.107,0.063
2.107,0.060
2.107,0.037
2.107,0.035
2.108,0.013
2.108,0.013
2.108,-0.007
2.108,-0.008
2.109,-0.018
2.109,-0.018
2.109,-0.037
2.110,-0.037
2.110,-0.050
2.110,-0.050
2.110,-0.055
2.111,-0.057
2.111,-0.053
2.111,-0.055
2.111,-0.048
2.111,-0.052
2.112,-0.047
2.112,-0.047
2.112,-0.050
2.112,-0.047
2.113,-0.045
2.113,-0.043
2.113,-0.048
2.114,-0.048
2.114,-0.043
2.114,-0.047
2.114,-0.035
2.115,-0.035
2.115,-0.015
2.115,-0.015
2.115,-0.003
2.115,-0.005
2.116,0.008
2.116,0.008
2.116,0.017
2.116,0.017
2.117,0.028
2.117,0.030
2.117,0.043
2.118,0.043
2.118,0.052
2.118,0.050
2.118,0.053
2.119,0.052
2.119,0.045
2.119,0.047
2.119,0.038
2.119,0.040
2.120,0.032
2.120,0.033
2.120,0.027
2.120,0.027
2.121,0.020
2.121,0.022
2.121,0.017
2.122,0.020
2.122,0.013
2.122,0.015
2.122,0.010
2.123,0.012
2.123,0.008
2.123,0.010
2.123,0.003
2.123,0.002
2.124,0.005
2.124,0.007
2.124,0.002
2.124,0.005
2.125,0.002
2.125,0.003
2.125,0.000
2.126,0.002
2.126,0.005
2.126,0.000
2.126,0.003
2.127,0.005
2.127,0.000
2.127,0.002
2.127,-0.005
2.127,-0.002
2.128,-0.005
2.128,-0.007
2.128,-0.002
2.128,-0.007
2.129,-0.003
2.129,-0.005
2.129,-0.008
2.130,-0.007
2.130,-0.005
2.130,-0.005
2.130,0.000
2.131,-0.002
2.131,0.002
2.131,0.002
2.131,0.003
2.131,0.003
2.132,0.007
2.132,0.003
2.132,0.008
2.132,0.005
2.133,0.012
2.133,0.010
2.133,0.008
2.134,0.012
2.134,0.007
2.134,0.008
2.134,0.003
2.135,0.005
2.135,0.002
2.135,0.003
2.135,-0.002
2.135,-0.002
2.136,-0.005
2.136,-0.003
2.136,-0.008
2.136,-0.007
2.137,-0.012
2.137,-0.012
2.137,-0.020
2.138,-0.022
2.138,-0.018
2.138,-0.022
2.138,-0.018
2.139,-0.020
2.139,-0.010
2.139,-0.010
2.139,-0.005
2.139,-0.007
2.140,0.002
2.140,0.002
2.140,0.008
2.140,0.007
2.141,0.012
2.141,0.012
2.141,0.020
2.142,0.020
2.142,0.030
2.142,0.030
2.142,0.040
2.143,0.040
2.143,0.037
2.143,0.038
2.143,0.032
2.143,0.033
2.144,0.038
2.144,0.037
2.144,0.042
2.144,0.040
2.145,0.043
2.145,0.040
2.145,0.027
2.146,0.025
2.146,0.017
2.146,0.017
2.146,0.023
2.147,0.022
2.147,0.035
2.147,0.035
2.147,0.038
2.147,0.038
2.148,0.027
2.148,0.027
2.148,-0.003
2.148,-0.005
2.149,-0.037
2.149,-0.038
2.149,-0.045
2.150,-0.043
2.150,-0.033
2.150,-0.033
2.150,-0.023
2.151,-0.023
2.151,-0.015
2.151,-0.015
2.151,-0.020
2.151,-0.018
2.152,-0.023
2.152,-0.023
2.152,-0.032
2.152,-0.032
2.153,-0.037
2.153,-0.032
2.153,-0.020
2.154,-0.022
2.154,-0.015
2.154,-0.017
2.154,-0.010
2.155,-0.010
2.155,-0.003
2.155,-0.003
2.155,-0.007
2.155,-0.007
2.156,-0.005
2.156,-0.005
2.156,-0.008
2.156,-0.008
2.157,-0.007
2.157,-0.005
2.157,-0.008
2.158,-0.010
2.158,-0.002
2.158,-0.002
2.158,0.005
2.159,0.008
2.159,0.013
2.159,0.013
2.159,0.022
2.159,0.020
2.160,0.023
2.160,0.022
2.160,0.028
2.160,0.025
2.161,0.030
2.161,0.028
2.161,0.018
2.162,0.018
2.162,0.000
2.162,-0.002
2.162,-0.022
2.163,-0.023
2.163,-0.042
2.163,-0.042
2.163,-0.052
2.163,-0.053
2.164,-0.047
2.164,-0.048
2.164,-0.040
2.164,-0.040
2.165,-0.028
2.165,-0.030
2.165,-0.017
2.166,-0.018
2.166,-0.007
2.166,-0.007
2.166,0.002
2.167,0.002
2.167,0.010
2.167,0.010
2.167,0.005
2.167,0.007
2.168,-0.008
2.168,-0.008
2.168,-0.018
2.168,-0.018
2.169,-0.023
2.169,-0.023
2.169,-0.013
2.170,-0.013
2.170,-0.003
2.170,-0.005
2.170,0.012
2.171,0.013
2.171,0.038
2.171,0.040
2.171,0.060
2.171,0.058
2.172,0.070
2.172,0.068
2.172,0.037
2.172,0.033
2.173,-0.038
2.173,-0.042
2.173,-0.138
2.174,-0.140
2.174,-0.180
2.174,-0.180
2.174,-0.150
2.175,-0.148
2.175,-0.100
2.175,-0.097
2.175,-0.052
2.175,-0.050
2.176,-0.015
2.176,-0.013
2.176,0.012
2.176,0.008
2.177,0.027
2.177,0.027
2.177,0.035
2.178,0.035
2.178,0.042
2.178,0.042
2.178,0.050
2.179,0.050
2.179,0.053
2.179,0.048
2.179,0.052
2.179,0.050
2.180,0.055
2.180,0.052
2.180,0.058
2.180,0.057
2.181,0.063
2.181,0.062
2.181,0.053
2.182,0.055
2.182,0.035
2.182,0.033
2.182,0.025
2.183,0.025
2.183,0.018
2.183,0.020
2.183,0.028
2.183,0.030
2.184,0.048
2.184,0.050
2.184,0.067
2.184,0.068
2.185,0.078
2.185,0.075
2.185,0.095
2.186,0.095
2.186,0.117
2.186,0.117
2.186,0.148
2.187,0.148
2.187,0.205
2.187,0.210
2.187,0.298
2.188,0.302
2.188,0.413
2.188,0.285
2.188,-0.375
2.188,-0.393
2.189,-0.325
2.189,-0.318
2.189,-0.125
2.189,-0.123
2.190,-0.030
2.190,-0.023
2.190,0.095
2.191,0.102
2.191,0.187
2.191,0.188
2.191,0.257
2.192,0.260
2.192,0.295
2.192,0.290
2.192,-0.008
2.192,-0.027
2.193,-0.582
2.193,-0.620
2.193,-0.558
2.193,-0.550
2.194,-0.267
2.194,-0.253
2.194,-0.030
2.195,-0.022
2.195,0.093
2.195,0.097
2.195,0.135
2.196,0.138
2.196,0.135
2.196,0.135
2.196,0.113
2.196,0.113
2.197,0.088
2.197,0.073
2.197,0.095
2.197,0.120
2.198,0.075
2.198,0.070
2.198,0.045
2.199,0.047
2.199,0.042
2.199,0.045
2.199,0.050
2.200,0.048
2.200,0.043
2.200,0.045
2.200,0.035
2.200,0.035
2.201,0.027
2.201,0.028
2.201,0.020
2.201,0.020
2.202,0.017
2.202,0.020
2.202,0.027
2.203,0.027
2.203,0.022
2.203,0.020
2.203,0.027
2.204,0.025
2.204,0.048
2.204,0.052
2.204,0.127
2.204,0.130
2.205,0.213
2.205,0.218
2.205,0.330
2.205,0.337
2.206,0.490
2.206,0.570
2.206,0.465
2.207,0.453
2.207,-0.320
2.207,-0.358
2.207,-0.798
2.208,-0.687
2.208,0.120
2.208,0.712
2.208,-1.323
2.208,-1.527
2.209,-2.508
2.209,-1.730
2.209,-0.033
2.209,0.003
2.210,0.187
2.210,0.130
2.210,0.397
2.211,0.405
2.211,0.363
2.211,0.360
2.211,0.267
2.212,0.263
2.212,0.192
2.212,0.188
2.212,0.142
2.212,0.137
2.213,0.078
2.213,0.077
2.213,0.058
2.213,0.058
2.214,0.053
2.214,0.053
2.214,0.038
2.215,0.038
2.215,0.027
2.215,0.025
2.215,0.013
2.216,0.015
2.216,0.007
2.216,0.010
2.216,0.005
2.216,0.007
2.217,0.003
2.217,0.005
2.217,0.002
2.217,0.002
2.218,-0.002
2.218,0.000
2.218,0.002
2.219,0.002
2.219,0.008
2.219,0.005
2.219,0.013
2.220,0.012
2.220,0.007
2.220,0.008
2.220,0.005
2.220,0.008
2.221,-0.002
2.221,-0.002
2.221,-0.010
2.221,-0.008
2.222,-0.015
2.222,-0.015
2.222,-0.020
2.223,-0.018
2.223,-0.022
2.223,-0.020
2.223,-0.023
2.224,-0.022
2.224,-0.027
2.224,-0.027
2.224,-0.023
2.224,-0.025
2.225,-0.022
2.225,-0.025
2.225,-0.018
2.225,-0.022
2.226,-0.018
2.226,-0.018
2.226,-0.013
2.227,-0.017
2.227,-0.013
2.227,-0.018
2.227,-0.013
2.228,-0.015
2.228,-0.010
2.228,-0.015
2.228,-0.010
2.228,-0.013
2.229,-0.010
2.229,-0.010
2.229,-0.013
2.229,-0.010
2.230,-0.013
2.230,-0.012
2.230,-0.010
2.231,-0.012
2.231,-0.008
2.231,-0.010
2.231,-0.007
2.232,-0.010
2.232,-0.003
2.232,-0.005
2.232,-0.007
2.232,-0.007
2.233,0.000
2.233,-0.002
2.233,0.003
2.233,0.002
2.234,0.008
2.234,0.007
2.234,0.012
2.235,0.010
2.235,0.013
2.235,0.013
2.235,0.017
2.236,0.013
2.236,0.018
2.236,0.017
2.236,0.005
2.236,0.007
2.237,-0.003
2.237,-0.003
2.237,-0.007
2.237,-0.007
2.238,-0.010
2.238,-0.008
2.238,-0.003
2.239,-0.007
2.239,-0.003
2.239,-0.005
2.239,0.000
2.240,0.000
2.240,0.012
2.240,0.012
2.240,0.023
2.240,0.025
2.241,0.032
2.241,0.032
2.241,0.007
2.241,0.005
2.242,-0.013
2.242,-0.013
2.242,-0.020
2.243,-0.018
2.243,-0.025
2.243,-0.025
2.243,-0.015
2.244,-0.018
2.244,-0.013
2.244,-0.012
2.244,-0.023
2.244,-0.023
2.245,-0.028
2.245,-0.028
2.245,-0.025
2.245,-0.023
2.246,-0.030
2.246,-0.027
2.246,-0.030
2.247,-0.028
2.247,-0.035
2.247,-0.035
2.247,-0.042
2.248,-0.040
2.248,-0.047
2.248,-0.042
2.248,-0.022
2.248,-0.020
2.249,-0.008
2.249,-0.008
2.249,-0.007
2.249,-0.005
2.250,-0.008
2.250,-0.008
2.250,-0.025
2.251,-0.025
2.251,-0.048
2.251,-0.053
2.251,-0.047
2.252,-0.045
2.252,-0.022
2.252,0.100
2.252,-0.022
2.252,-0.002
2.253,-0.002
2.253,0.008
2.253,0.010
2.253,0.007
2.254,0.008
2.254,0.012
2.254,0.013
2.255,0.005
2.255,0.007
2.255,0.003
2.255,0.007
2.256,0.003
2.256,0.002
2.256,0.007
2.256,0.003
2.256,0.012
2.257,0.013
2.257,0.022
2.257,0.023
2.257,0.028
2.258,0.025
2.258,0.008
2.258,0.007
2.259,-0.013
2.259,-0.013
2.259,-0.020
2.259,-0.020
2.260,-0.017
2.260,-0.023
2.260,-0.013
2.260,-0.012
2.260,0.000
2.261,0.000
2.261,0.007
2.261,0.007
2.261,0.012
2.262,0.012
2.262,0.007
2.262,0.010
2.263,0.003
2.263,0.005
2.263,0.002
2.263,0.003
2.264,-0.003
2.264,-0.003
2.264,-0.018
2.264,-0.020
2.264,-0.035
2.265,-0.035
2.265,-0.043
2.265,-0.043
2.265,-0.032
2.266,-0.032
2.266,-0.020
2.266,-0.020
2.267,-0.013
2.267,-0.015
2.267,-0.008
2.267,-0.010
2.268,-0.003
2.268,-0.003
2.268,0.008
2.268,0.008
2.268,0.018
2.269,0.015
2.269,0.023
2.269,0.022
2.269,0.028
2.270,0.025
2.270,0.027
2.270,0.027
2.271,0.023
2.271,0.025
2.271,0.020
2.271,0.022
2.272,0.015
2.272,0.018
2.272,0.015
2.272,0.013
2.272,0.020
2.273,0.020
2.273,0.013
2.273,0.017
2.273,0.012
2.274,0.012
2.274,0.018
2.274,0.015
2.275,0.022
2.275,0.022
2.275,0.018
2.275,0.022
2.276,0.018
2.276,0.020
2.276,0.013
2.276,0.015
2.276,0.008
2.277,0.010
2.277,0.005
2.277,0.005
2.277,-0.002
2.278,0.002
2.278,-0.005
2.278,-0.003
2.279,-0.012
2.279,-0.013
2.279,-0.028
2.279,-0.028
2.280,-0.038
2.280,-0.038
2.280,-0.035
2.280,-0.035
2.280,-0.038
2.281,-0.037
2.281,-0.040
2.281,-0.038
2.281,-0.033
2.282,-0.037
2.282,-0.043
2.282,-0.042
2.283,-0.045
2.283,-0.047
2.283,-0.040
2.283,-0.040
2.284,-0.035
2.284,-0.037
2.284,-0.027
2.284,-0.028
2.284,-0.015
2.285,-0.015
2.285,-0.003
2.285,-0.002
2.285,0.013
2.286,0.012
2.286,0.023
2.286,0.022
2.287,0.028
2.287,0.027
2.287,0.032
2.287,0.032
2.288,0.027
2.288,0.033
2.288,0.025
2.288,0.025
2.288,0.010
2.289,0.010
2.289,-0.002
2.289,-0.002
2.289,-0.010
2.290,-0.012
2.290,-0.002
2.290,-0.003
2.291,0.003
2.291,0.003
2.291,0.020
2.291,0.018
2.292,0.043
2.292,0.045
2.292,0.062
2.292,0.062
2.292,0.073
2.293,0.072
2.293,0.085
2.293,0.082
2.293,0.090
2.294,0.092
2.294,0.135
2.294,0.138
2.295,0.220
2.295,0.223
2.295,0.340
2.295,0.375
2.296,-0.327
2.296,-0.343
2.296,-0.495
2.296,-0.495
2.296,-0.345
2.297,-0.338
2.297,-0.213
2.297,-0.205
2.297,0.047
2.298,0.057
2.298,0.345
2.298,0.358
2.299,0.668
2.299,0.682
2.299,0.883
2.299,0.877
2.300,0.163
2.300,0.115
2.300,-1.005
2.300,-1.102
2.300,-0.645
2.301,-0.547
2.301,0.298
2.301,-0.497
2.301,-2.767
2.302,-1.790
2.302,-0.017
2.302,0.037
2.303,0.453
2.303,0.465
2.303,0.648
2.303,0.647
2.304,0.562
2.304,0.555
2.304,0.418
2.304,0.413
2.304,0.298
2.305,0.293
2.305,0.200
2.305,0.195
2.305,0.125
2.306,0.122
2.306,0.083
2.306,0.082
2.307,0.063
2.307,0.063
2.307,0.045
2.307,0.045
2.308,0.040
2.308,0.038
2.308,0.045
2.308,0.045
2.308,0.052
2.309,0.053
2.309,0.060
2.309,0.060
2.309,0.057
2.310,0.058
2.310,0.053
2.310,0.052
2.311,0.045
2.311,0.043
2.311,0.028
2.311,0.030
2.312,0.013
2.312,0.013
2.312,-0.002
2.312,-0.002
2.312,-0.023
2.313,-0.023
2.313,-0.042
2.313,-0.042
2.313,-0.035
2.314,-0.035
2.314,-0.027
2.314,-0.030
2.314,-0.023
2.315,-0.025
2.315,-0.012
2.315,-0.010
2.316,0.000
2.316,0.000
2.316,0.020
2.316,0.022
2.317,0.033
2.317,0.033
2.317,0.043
2.317,0.038
2.317,0.045
2.318,0.040
2.318,0.042
2.318,0.040
2.318,0.033
2.319,0.035
2.319,0.025
2.319,0.027
2.320,0.022
2.320,0.020
2.320,0.013
2.320,0.013
2.321,0.008
2.321,0.008
2.321,0.012
2.321,0.008
2.321,0.013
2.322,0.012
2.322,0.015
2.322,0.013
2.322,0.007
2.323,0.008
2.323,0.002
2.323,0.003
2.324,-0.005
2.324,-0.005
2.324,-0.010
2.324,-0.008
2.325,-0.012
2.325,-0.013
2.325,-0.010
2.325,-0.010
2.325,-0.013
2.326,-0.012
2.326,-0.015
2.326,-0.013
2.326,-0.018
2.327,-0.017
2.327,-0.022
2.327,-0.020
2.328,-0.023
2.328,-0.022
2.328,-0.018
2.328,-0.020
2.329,-0.013
2.329,-0.015
2.329,-0.012
2.329,-0.013
2.329,-0.010
2.330,-0.008
2.330,-0.013
2.330,-0.010
2.330,-0.013
2.331,-0.010
2.331,-0.015
2.331,-0.012
2.332,-0.015
2.332,-0.013
2.332,-0.017
2.332,-0.017
2.333,-0.013
2.333,-0.013
2.333,-0.018
2.333,-0.015
2.333,-0.022
2.334,-0.018
2.334,-0.022
2.334,-0.018
2.334,-0.022
2.335,-0.020
2.335,-0.015
2.335,-0.018
2.336,-0.010
2.336,-0.013
2.336,-0.007
2.336,-0.008
2.337,-0.002
2.337,-0.003
2.337,-0.007
2.337,-0.005
2.337,-0.008
2.338,-0.007
2.338,-0.012
2.338,-0.010
2.338,-0.003
2.339,-0.003
2.339,0.010
2.339,0.008
2.340,0.020
2.340,0.018
2.340,0.028
2.340,0.030
2.341,0.037
2.341,0.037
2.341,0.047
2.341,0.048
2.341,0.065
2.342,0.067
2.342,0.087
2.342,0.087
2.342,0.092
2.343,0.088
2.343,0.080
2.343,0.080
2.344,0.045
2.344,0.043
2.344,-0.022
2.344,-0.025
2.345,-0.073
2.345,-0.075
2.345,-0.083
2.345,-0.082
2.345,-0.073
2.346,-0.077
2.346,-0.073
2.346,-0.077
2.346,-0.065
2.347,-0.067
2.347,-0.060
2.347,-0.063
2.348,-0.060
2.348,-0.065
2.348,-0.058
2.348,-0.060
2.349,-0.055
2.349,-0.055
2.349,-0.050
2.349,-0.050
2.349,-0.047
2.350,-0.045
2.350,-0.038
2.350,-0.035
2.350,-0.025
2.351,-0.025
2.351,-0.017
2.351,-0.017
2.352,-0.013
2.352,-0.012
2.352,-0.018
2.352,-0.017
2.353,-0.005
2.353,-0.005
2.353,0.022
2.353,0.025
2.353,0.042
2.354,0.042
2.354,0.048
2.354,0.045
2.354,0.037
2.355,0.037
2.355,0.022
2.355,0.022
2.356,0.012
2.356,0.012
2.356,0.005
2.356,0.003
2.357,-0.012
2.357,-0.012
2.357,-0.027
2.357,-0.025
2.357,-0.037
2.358,-0.037
2.358,-0.030
2.358,-0.028
2.358,-0.033
2.359,-0.032
2.359,-0.053
2.359,-0.053
2.360,-0.067
2.360,-0.067
2.360,-0.062
2.360,-0.062
2.361,-0.057
2.361,-0.057
2.361,-0.047
2.361,-0.047
2.361,-0.037
2.362,-0.038
2.362,-0.033
2.362,-0.035
2.362,-0.038
2.363,-0.037
2.363,-0.032
2.363,-0.032
2.364,-0.025
2.364,-0.025
2.364,-0.013
2.364,-0.012
2.365,-0.005
2.365,-0.008
2.365,0.000
2.365,0.000
2.365,-0.008
2.366,-0.007
2.366,-0.012
2.366,-0.012
2.366,-0.005
2.367,-0.005
2.367,0.000
2.367,0.002
2.368,-0.003
2.368,-0.002
2.368,-0.008
2.368,-0.007
2.369,-0.012
2.369,-0.013
2.369,-0.008
2.369,-0.008
2.369,-0.002
2.370,-0.003
2.370,0.005
2.370,0.003
2.370,0.010
2.371,0.008
2.371,0.012
2.371,0.010
2.372,0.013
2.372,0.013
2.372,0.007
2.372,0.010
2.373,0.003
2.373,0.007
2.373,-0.003
2.373,-0.002
2.373,-0.010
2.374,-0.013
2.374,-0.008
2.374,-0.010
2.374,-0.008
2.375,-0.008
2.375,-0.012
2.375,-0.008
2.376,-0.003
2.376,-0.005
2.376,0.003
2.376,0.003
2.377,0.007
2.377,0.003
2.377,0.008
2.377,0.008
2.377,0.015
2.378,0.013
2.378,0.017
2.378,0.015
2.378,0.020
2.379,0.018
2.379,0.023
2.379,0.023
2.380,0.020
2.380,0.022
2.380,0.025
2.380,0.022
2.381,0.025
2.381,0.027
2.381,0.023
2.381,0.023
2.381,0.028
2.382,0.028
2.382,0.033
2.382,0.030
2.382,0.032
2.383,0.032
2.383,0.025
2.383,0.027
2.384,0.022
2.384,0.018
2.384,0.025
2.384,0.017
2.385,0.022
2.385,0.018
2.385,0.015
2.385,0.018
2.385,0.010
2.386,0.013
2.386,0.017
2.386,0.013
2.386,0.018
2.387,0.017
2.387,0.020
2.387,0.018
2.388,0.023
2.388,0.020
2.388,0.023
2.388,0.020
2.389,0.022
2.389,0.022
2.389,0.067
2.389,0.070
2.389,0.155
2.390,0.158
2.390,0.253
2.390,0.258
2.390,0.372
2.391,0.378
2.391,0.545
2.391,0.577
2.392,0.348
2.392,0.320
2.392,-0.562
2.392,-0.837
2.393,-0.420
2.393,-0.345
2.393,0.590
2.393,0.595
2.393,-2.393
2.394,-2.478
2.394,-1.307
2.394,-1.225
2.394,0.138
2.395,0.153
2.395,0.432
2.395,0.438
2.396,0.467
2.396,0.445
2.396,0.360
2.396,0.358
2.397,0.310
2.397,0.313
2.397,0.290
2.397,0.295
2.397,0.385
2.398,0.450
2.398,-0.105
2.398,-0.135
2.398,-0.320
2.399,-0.332
2.399,-0.197
2.399,-0.187
2.400,-0.060
2.400,-0.055
2.400,0.082
2.400,0.087
2.401,0.182
2.401,0.185
2.401,0.243
2.401,0.243
2.401,0.280
2.402,0.290
2.402,0.245
2.402,0.240
2.402,-0.225
2.403,-0.260
2.403,-0.660
2.403,-0.663
2.404,-0.522
2.404,-0.512
2.404,-0.230
2.404,-0.218
2.405,-0.023
2.405,-0.018
2.405,0.065
2.405,0.067
2.405,0.078
2.406,0.077
2.406,0.067
2.406,0.068
2.406,0.058
2.407,0.058
2.407,0.047
2.407,0.048
2.408,0.045
2.408,0.047
2.408,0.058
2.408,0.058
2.409,0.073
2.409,0.075
2.409,0.090
2.409,0.092
2.409,0.100
2.410,0.100
2.410,0.103
2.410,0.100
2.410,0.083
2.411,0.082
2.411,0.057
2.411,0.055
2.412,0.022
